1517426740.00
64.000000
-0.00
-0.00
-0.00
-0.00
-0.00
-0.00
-0.00
-0.00
-0.00
-0.00
0.00
0.01
0.01
-0.00
-0.03
-0.05
-0.05
0.00
0.13
0.36
0.66
1.01
1.37
1.72
2.06
2.40
2.79
3.24
3.80
4.42
5.06
5.66
6.20
6.68
7.15
7.68
8.31
9.14
10.09
11.04
11.88
12.56
13.14
13.76
14.65
15.96
17.91
20.32
22.90
25.38
27.58
29.57
31.68
34.32
37.81
42.54
48.15
54.10
59.83
64.97
69.58
74.14
79.34
85.71
93.76
103.00
112.62
121.73
129.77
136.75
143.30
150.75
157.77
166.64
177.95
191.79
206.97
220.57
228.25
225.36
208.53
176.87
132.76
80.05
23.07
-34.94
-92.44
-149.16
-205.23
-260.37
-313.74
-363.87
-409.83
-450.91
-486.50
-515.74
-537.23
-549.22
-549.96
-538.37
-514.21
-478.67
-433.88
-382.45
-327.02
-269.84
-212.63
-156.66
-102.95
-52.37
-5.90
35.58
71.43
101.35
125.50
144.38
158.69
169.15
176.37
180.75
182.57
182.07
179.51
175.23
169.65
163.18
156.15
148.81
141.30
133.69
126.02
118.33
110.69
103.16
95.80
88.68
81.83
75.25
68.95
62.95
57.25
51.86
46.78
42.03
37.59
33.45
29.61
26.07
22.81
19.83
17.11
14.67
12.48
10.54
8.83
7.35
6.07
4.97
4.05
3.27
2.62
2.09
1.65
1.30
1.01
0.79
0.61
0.47
0.37
0.28
0.22
0.18
0.14
0.12
0.11
0.11
0.11
0.12
0.14
0.16
0.19
0.23
0.26
0.30
0.35
0.39
0.44
0.48
0.53
0.58
0.63
0.69
0.75
0.81
0.89
0.96
1.05
1.14
1.24
1.36
1.49
1.63
1.80
1.98
2.18
2.41
2.66
2.93
3.23
3.57
3.93
4.33
4.76
5.24
5.74
6.29
6.87
7.50
8.17
8.88
9.65
10.45
11.30
12.19
13.13
14.12
15.18
16.29
17.48
18.71
19.98
21.24
22.44
23.49
24.28
24.70
24.63
23.95
22.60
20.53
17.76
14.37
10.43
6.14
1.68
-2.74
-6.92
-10.68
-13.87
-16.40
-18.21
-19.29
-19.69
-19.49
-18.83
-17.81
-16.55
-15.14
-13.63
-12.04
-10.36
-8.58
-6.74
-4.90
-3.10
-1.36
0.35
2.03
3.77
5.64
7.71
9.87
12.05
14.18
16.22
18.19
20.20
22.36
24.87
27.88
31.15
34.44
37.57
40.40
42.95
45.38
47.97
51.04
54.87
59.03
63.09
66.66
69.47
71.52
73.06
74.56
76.48
79.15
81.84
83.75
84.06
82.08
77.45
69.97
59.29
44.34
28.18
11.31
-6.34
-25.10
-45.40
-67.74
-92.41
-119.20
-146.89
-172.97
-194.69
-209.08
-214.14
-209.65
-197.19
-179.34
-158.57
-136.48
-113.63
-90.68
-68.27
-47.43
-29.28
-14.62
-3.50
4.64
10.64
15.08
17.80
18.46
16.84
13.19
8.27
3.17
-1.13
-4.14
-6.01
-7.62
-9.98
-13.72
-18.84
-24.69
-30.29
-34.82
-38.05
-40.50
-43.35
-48.07
-55.90
-67.34
-81.68
-96.65
-108.65
-113.44
-107.42
-88.90
-58.97
-21.36
18.59
55.58
85.72
107.17
119.89
124.88
123.35
116.47
105.46
91.88
77.78
65.35
56.40
51.77
51.16
53.36
56.80
60.14
62.64
64.10
64.54
63.86
61.68
57.49
50.96
42.23
32.06
21.60
11.98
3.92
-2.56
-8.09
-13.62
-19.92
-27.27
-35.26
-43.04
-49.72
-54.75
-58.28
-61.11
-64.50
-69.78
-77.96
-89.26
-102.64
-115.73
-125.03
-126.75
-117.95
-97.69
-67.54
-31.32
6.05
39.87
66.87
85.63
96.31
99.91
97.69
90.86
80.69
68.68
56.63
46.39
39.45
36.48
37.25
40.70
45.41
50.09
53.85
56.24
57.13
56.44
54.01
49.68
43.45
35.67
27.05
18.42
10.42
3.20
-3.59
-10.57
-18.19
-26.50
-35.01
-42.98
-49.75
-55.02
-59.08
-62.67
-66.86
-72.75
-81.15
-92.03
-104.16
-114.90
-120.71
-118.10
-104.94
-81.41
-50.16
-15.59
17.56
45.49
66.17
79.28
85.53
85.97
81.54
73.09
61.75
49.13
37.20
27.83
22.33
20.99
23.17
27.59
32.78
37.53
41.03
42.87
42.89
41.10
37.61
32.64
26.49
19.52
12.02
4.20
-3.82
-11.97
-20.08
-27.93
-35.20
-41.61
-47.02
-51.56
-55.61
-59.82
-65.01
-71.99
-81.22
-92.36
-103.84
-112.91
-116.13
-110.47
-94.50
-69.16
-37.63
-4.38
26.18
50.96
68.58
79.13
83.35
82.07
76.00
65.99
53.37
40.11
28.51
20.57
17.34
18.63
23.08
28.75
33.77
36.96
38.01
37.36
35.66
33.35
30.39
26.28
20.39
12.38
2.53
-8.27
-18.81
-28.01
-35.30
-40.85
-45.38
-49.91
-55.46
-62.77
-72.22
-83.60
-95.85
-106.88
-113.77
-113.45
-103.71
-84.20
-56.76
-25.05
6.69
34.75
56.80
71.98
80.38
82.46
78.78
70.16
57.93
44.18
31.39
21.93
17.25
17.50
21.52
27.32
32.84
36.62
38.19
37.95
36.65
34.82
32.35
28.57
22.61
14.03
3.14
-8.94
-20.73
-30.91
-38.89
-44.93
-49.98
-55.31
-62.10
-71.14
-82.47
-95.21
-107.37
-116.01
-117.89
-110.38
-92.53
-65.58
-32.83
1.34
32.70
58.21
76.41
87.16
91.00
88.64
80.92
69.05
54.91
41.02
30.01
23.85
23.13
26.92
33.15
39.44
43.99
46.03
45.85
44.23
41.87
38.93
34.91
29.03
20.67
9.82
-2.73
-15.63
-27.37
-36.87
-43.91
-49.10
-53.72
-59.22
-66.82
-77.19
-90.07
-104.12
-116.74
-124.46
-123.70
-111.98
-89.03
-57.15
-20.72
15.16
46.15
69.77
85.35
93.44
94.93
90.61
81.31
68.41
54.11
41.20
32.32
29.05
31.37
37.66
45.41
52.09
56.00
56.61
54.46
50.59
45.93
40.90
35.24
28.27
19.34
8.26
-4.41
-17.48
-29.52
-39.41
-46.77
-52.10
-56.55
-61.56
-68.43
-78.05
-90.60
-105.21
-119.77
-130.91
-134.69
-127.67
-108.34
-77.93
-40.30
-0.88
35.08
63.90
84.06
95.84
100.38
98.83
92.15
81.33
67.95
54.32
43.10
36.55
35.75
40.17
47.87
56.21
62.75
65.95
65.52
62.15
57.02
51.13
44.91
38.12
30.15
20.45
8.99
-3.63
-16.27
-27.74
-37.22
-44.59
-50.40
-55.65
-61.38
-68.56
-77.91
-89.86
-104.12
-119.31
-132.59
-140.00
-137.48
-122.42
-94.88
-58.00
-17.07
22.10
54.99
79.27
94.70
102.24
103.08
98.23
88.75
76.23
63.02
51.90
45.31
44.44
48.91
56.82
65.55
72.65
76.49
76.53
73.25
67.58
60.55
52.88
44.84
36.30
26.94
16.49
5.01
-7.07
-18.92
-29.68
-38.68
-45.75
-51.30
-56.18
-61.48
-68.29
-77.60
-89.95
-105.06
-121.33
-135.59
-143.53
-140.87
-124.96
-96.01
-57.39
-14.69
26.02
59.97
84.73
100.08
107.18
107.52
102.46
93.20
81.29
68.80
58.15
51.51
50.02
53.44
60.20
68.01
74.60
78.41
78.79
75.90
70.38
62.96
54.25
44.69
34.55
24.00
13.15
2.12
-8.92
-19.66
-29.73
-38.75
-46.45
-52.82
-58.17
-63.09
-68.49
-75.47
-85.21
-98.46
-114.88
-132.44
-147.29
-154.51
-149.60
-130.26
-97.47
-55.43
-10.30
31.76
66.27
91.14
106.32
112.92
112.29
105.78
94.92
81.74
68.84
58.78
53.42
53.28
57.51
64.23
71.31
77.01
80.24
80.57
77.96
72.57
64.72
54.92
43.92
32.48
21.31
10.72
0.69
-9.04
-18.67
-28.17
-37.25
-45.51
-52.65
-58.64
-63.81
-68.81
-74.50
-81.98
-92.35
-106.25
-123.25
-141.11
-155.78
-162.14
-155.68
-134.27
-99.22
-55.18
-8.72
33.79
67.83
91.55
105.31
110.70
109.49
103.13
92.89
80.33
67.44
56.55
49.72
48.10
51.46
58.30
66.28
73.02
76.75
76.68
72.98
66.42
58.03
48.63
38.76
28.57
18.03
7.01
-4.44
-16.08
-27.39
-37.79
-46.80
-54.34
-60.67
-66.40
-72.31
-79.26
-88.16
-99.75
-114.22
-130.55
-146.07
-156.55
-157.32
-144.88
-118.42
-80.53
-36.45
7.52
46.00
75.80
96.07
107.58
111.70
109.67
102.53
91.57
78.59
65.93
56.05
50.77
50.70
55.04
61.80
68.53
73.04
74.04
71.30
65.48
57.63
48.75
39.40
29.65
19.23
7.83
-4.59
-17.63
-30.51
-42.30
-52.23
-60.01
-65.93
-70.73
-75.49
-81.39
-89.60
-101.10
-116.25
-134.17
-152.22
-166.10
-170.75
-161.95
-138.02
-100.75
-55.03
-7.33
36.19
71.32
96.35
111.64
118.63
119.02
114.34
106.08
95.88
85.57
77.02
71.60
69.86
71.40
75.06
79.33
82.80
84.40
83.53
79.94
73.65
64.88
54.06
41.85
29.08
16.54
4.77
-6.12
-16.40
-26.56
-36.98
-47.63
-58.07
-67.64
-75.84
-82.66
-88.70
-95.16
-103.55
-115.29
-131.13
-150.46
-170.69
-187.38
-195.00
-188.67
-165.92
-127.95
-79.47
-27.31
21.73
62.73
93.51
114.29
126.52
131.88
131.66
126.97
119.12
109.95
101.57
95.88
93.84
95.13
98.34
101.59
103.31
102.81
100.29
96.48
91.99
86.84
80.46
72.03
60.99
47.52
32.61
17.78
4.61
-5.87
-13.54
-19.27
-24.62
-31.22
-40.15
-51.45
-64.12
-76.58
-87.37
-95.80
-102.26
-108.02
-114.84
-124.48
-138.15
-156.09
-176.97
-197.56
-212.95
-217.57
-206.86
-179.03
-136.03
-83.22
-27.78
23.46
65.77
97.26
118.38
130.84
136.50
136.90
133.30
127.03
119.68
113.01
108.51
106.92
108.02
110.75
113.70
115.62
115.80
114.12
110.80
106.13
100.15
92.74
83.83
73.55
62.42
51.17
40.45
30.63
21.64
13.15
4.81
-3.47
-11.50
-18.93
-25.56
-31.58
-37.65
-44.60
-53.10
-63.26
-74.55
-85.95
-96.39
-105.24
-112.55
-119.14
-126.37
-135.84
-148.81
-165.61
-184.91
-203.37
-216.00
-217.39
-203.42
-172.92
-128.43
-75.53
-21.23
28.13
68.36
97.90
117.29
128.11
132.14
130.95
125.99
118.82
111.22
104.88
101.06
100.20
101.82
104.73
107.62
109.45
109.75
108.54
106.00
102.17
96.88
89.84
80.97
70.58
59.44
48.44
38.28
29.24
21.11
13.43
5.79
-1.87
-9.32
-16.18
-22.26
-27.79
-33.39
-39.85
-47.68
-56.87
-66.88
-76.87
-86.05
-94.00
-100.90
-107.44
-114.68
-123.91
-136.19
-151.78
-169.47
-186.16
-197.16
-197.34
-182.89
-152.90
-110.04
-59.91
-9.31
35.80
71.71
97.32
113.45
121.76
123.87
121.04
114.45
105.54
96.10
88.07
82.98
81.50
83.21
86.88
90.96
94.12
95.59
95.19
93.07
89.45
84.44
78.05
70.27
61.23
51.27
40.87
30.49
20.59
11.47
3.34
-3.72
-9.70
-14.75
-19.20
-23.50
-28.24
-33.94
-40.92
-49.06
-57.91
-66.73
-74.84
-81.88
-87.99
-93.79
-100.33
-108.79
-120.12
-134.53
-150.88
-166.33
-176.60
-176.99
-163.90
-136.39
-96.84
-50.44
-3.63
37.86
70.41
92.95
106.32
112.17
112.13
107.49
99.45
89.44
79.30
70.91
65.82
64.65
67.02
71.67
76.93
81.27
83.67
83.76
81.72
78.03
73.14
67.36
60.76
53.25
44.75
35.35
25.40
15.46
6.23
-1.72
-8.09
-13.02
-17.08
-21.06
-25.74
-31.61
-38.62
-46.25
-53.72
-60.34
-65.80
-70.31
-74.58
-79.54
-86.20
-95.37
-107.40
-121.89
-137.20
-150.36
-157.44
-154.54
-139.09
-111.07
-73.34
-30.92
10.45
45.96
72.83
90.40
99.58
101.84
98.65
91.28
81.10
69.76
59.23
51.37
47.37
47.36
50.35
54.69
58.77
61.61
63.23
64.34
65.72
67.63
69.40
69.67
66.97
60.48
50.49
38.36
26.02
15.11
6.41
-0.35
-6.24
-12.43
-19.66
-27.92
-36.55
-44.59
-51.32
-56.53
-60.58
-64.26
-68.49
-74.14
-81.89
-92.02
-104.11
-116.69
-127.17
-132.21
-128.61
-114.47
-90.05
-57.96
-22.49
11.64
40.55
61.99
75.34
81.23
80.85
75.53
66.64
55.71
44.45
34.58
27.58
24.21
24.44
27.40
31.84
36.50
40.47
43.31
44.87
45.11
43.88
40.97
36.22
29.70
21.88
13.51
5.40
-1.84
-8.13
-13.78
-19.41
-25.54
-32.37
-39.63
-46.67
-52.78
-57.48
-60.85
-63.56
-66.75
-71.68
-79.24
-89.38
-100.77
-110.78
-116.09
-113.57
-101.41
-79.85
-51.24
-19.41
11.49
38.05
58.23
71.44
78.07
78.96
75.05
67.38
57.18
45.98
35.51
27.34
22.54
21.35
23.23
27.05
31.51
35.54
38.44
39.88
39.79
38.16
35.04
30.54
24.83
18.16
10.74
2.76
-5.71
-14.55
-23.55
-32.36
-40.57
-47.82
-53.95
-59.11
-63.69
-68.39
-74.04
-81.41
-90.82
-101.73
-112.37
-119.87
-120.97
-113.03
-95.13
-68.62
-36.73
-3.72
26.44
50.96
68.56
79.17
83.35
81.88
75.61
65.65
53.54
41.30
30.99
24.27
21.81
23.16
26.91
31.25
34.68
36.35
36.24
34.85
32.70
29.98
26.39
21.31
14.18
4.88
-6.14
-17.85
-29.08
-38.83
-46.64
-52.71
-57.76
-62.83
-69.03
-77.23
-87.80
-100.24
-112.91
-123.12
-127.54
-123.20
-108.49
-83.92
-52.10
-17.11
16.73
45.88
68.20
82.93
90.28
90.90
85.73
76.01
63.44
50.19
38.56
30.43
26.74
27.22
30.54
34.87
38.51
40.45
40.51
39.11
36.83
33.89
29.98
24.37
16.38
5.78
-6.91
-20.47
-33.41
-44.48
-53.16
-59.87
-65.82
-72.65
-81.87
-94.32
-109.65
-126.02
-140.12
-147.91
-145.63
-131.15
-104.78
-69.41
-29.71
9.27
43.41
70.28
89.11
100.15
104.09
101.64
93.76
82.01
68.68
56.52
48.04
44.69
46.36
51.49
57.69
62.66
64.95
64.26
61.27
57.01
52.25
47.07
40.82
32.52
21.46
7.67
-7.81
-23.31
-37.10
-48.10
-56.32
-62.82
-69.25
-77.38
-88.50
-103.16
-120.77
-139.24
-155.06
-163.67
-160.72
-143.57
-112.56
-71.22
-25.43
18.52
55.70
83.58
102.00
112.13
115.47
113.24
106.41
96.21
84.42
73.38
65.36
61.92
63.33
68.49
75.28
81.35
84.79
84.69
81.22
75.30
68.04
60.22
51.99
42.93
32.42
20.10
6.13
-8.67
-23.11
-36.02
-46.67
-54.99
-61.63
-67.74
-74.66
-83.70
-95.86
-111.55
-130.15
-149.54
-166.02
-174.85
-171.44
-153.06
-120.03
-76.07
-27.22
19.89
59.97
90.18
110.11
120.92
124.30
121.80
114.88
105.20
94.89
86.29
81.28
80.75
84.12
89.77
95.63
100.05
102.25
102.25
100.48
97.20
92.25
85.14
75.48
63.40
49.72
35.76
22.79
11.60
2.08
-6.55
-15.36
-25.12
-35.90
-47.07
-57.60
-66.60
-73.82
-79.85
-85.99
-93.97
-105.46
-121.41
-141.34
-162.77
-181.27
-191.19
-187.32
-166.76
-130.24
-82.23
-29.64
20.33
62.25
93.51
114.07
125.40
129.28
127.17
120.32
110.33
99.39
90.10
84.74
84.44
88.73
95.71
102.86
107.98
109.93
108.82
105.60
101.37
96.74
91.50
84.86
75.99
64.49
50.88
36.43
22.84
11.58
3.30
-2.38
-6.78
-11.56
-18.11
-26.97
-37.67
-49.01
-59.55
-68.32
-75.14
-80.76
-86.58
-94.26
-105.29
-120.49
-139.51
-160.26
-178.86
-190.10
-188.82
-171.69
-138.64
-93.32
-42.08
7.96
51.01
83.91
106.17
118.98
123.99
122.63
116.06
105.76
93.85
83.03
75.86
73.95
77.31
84.40
92.73
99.79
103.86
104.43
101.98
97.51
91.92
85.58
78.31
69.61
59.13
47.01
33.97
21.24
10.07
1.34
-4.82
-9.09
-12.71
-17.05
-23.08
-31.02
-40.32
-49.92
-58.72
-66.03
-71.84
-76.85
-82.20
-89.21
-99.05
-112.45
-129.19
-147.65
-164.49
-175.12
-174.75
-160.04
-130.55
-89.25
-41.80
5.17
46.06
77.57
98.86
110.76
114.77
112.29
104.58
93.17
80.19
68.31
60.05
57.03
59.39
65.73
73.69
80.85
85.57
87.31
86.50
84.00
80.49
76.05
70.21
62.29
51.97
39.64
26.44
13.96
3.62
-3.86
-8.83
-12.50
-16.51
-22.14
-29.81
-38.88
-48.06
-56.00
-61.93
-66.01
-69.24
-73.08
-78.97
-88.01
-100.69
-116.59
-134.00
-149.70
-159.36
-158.51
-144.15
-116.04
-77.24
-33.25
9.68
46.41
74.08
92.14
101.45
103.32
98.99
89.70
77.14
63.66
51.94
44.31
41.90
44.36
50.04
56.75
62.58
66.48
68.34
68.58
67.57
65.32
61.34
55.04
46.24
35.44
23.81
12.75
3.38
-3.99
-9.88
-15.36
-21.48
-28.76
-36.95
-45.24
-52.66
-58.53
-62.84
-66.22
-69.82
-75.03
-83.08
-94.62
-109.16
-124.67
-137.60
-143.54
-138.62
-120.89
-91.37
-53.87
-13.90
23.12
53.27
74.78
87.71
93.12
92.23
86.20
76.30
64.16
51.87
41.62
35.11
33.04
34.98
39.61
45.29
50.63
54.75
57.28
58.14
57.21
54.23
48.95
41.34
31.87
21.45
11.23
2.14
-5.49
-11.99
-18.16
-24.80
-32.28
-40.33
-48.17
-54.92
-60.05
-63.67
-66.53
-69.86
-75.03
-83.21
-94.73
-108.66
-122.49
-132.40
-134.18
-124.62
-102.81
-70.74
-32.85
5.35
38.95
64.81
81.97
91.00
93.21
89.86
82.09
71.10
58.51
46.34
36.62
30.84
29.47
31.87
36.63
42.09
46.86
50.01
51.12
50.03
46.76
41.44
34.34
25.93
16.82
7.59
-1.37
-9.98
-18.42
-26.93
-35.57
-44.12
-52.08
-58.95
-64.45
-68.73
-72.40
-76.45
-82.11
-90.52
-102.28
-116.87
-132.14
-144.32
-148.88
-141.89
-121.64
-89.55
-49.94
-8.63
28.81
58.67
79.51
91.74
96.63
95.47
89.42
79.66
67.82
55.97
46.29
40.41
38.94
41.36
46.23
51.89
56.87
60.25
61.58
60.67
57.44
51.81
43.90
34.15
23.37
12.55
2.48
-6.57
-14.87
-23.05
-31.68
-40.90
-50.33
-59.20
-66.85
-73.00
-77.97
-82.68
-88.45
-96.74
-108.66
-124.38
-142.45
-159.49
-170.61
-170.78
-156.54
-127.53
-86.91
-40.48
5.17
44.63
74.84
95.17
106.61
110.70
108.88
102.45
92.86
82.03
72.16
65.21
62.33
63.48
67.51
72.68
77.35
80.42
81.51
80.73
78.25
74.02
67.74
59.13
48.27
35.83
22.93
10.76
0.11
-8.97
-17.13
-25.35
-34.40
-44.41
-54.80
-64.56
-72.79
-79.21
-84.39
-89.66
-96.84
-107.62
-122.90
-142.08
-162.55
-179.74
-188.11
-182.71
-161.06
-124.29
-76.99
-25.91
22.19
62.34
92.17
111.63
121.90
124.49
120.81
112.33
100.99
89.22
79.57
73.95
73.09
76.27
81.76
87.50
91.88
94.11
94.22
92.64
89.68
85.22
78.72
69.63
57.82
43.95
29.35
15.68
4.22
-4.63
-11.53
-17.84
-25.02
-33.87
-44.26
-55.15
-65.21
-73.43
-79.67
-84.75
-90.27
-98.12
-109.97
-126.59
-147.19
-168.98
-187.26
-196.32
-191.09
-168.98
-131.08
-82.11
-29.03
21.09
63.00
94.18
114.57
125.45
128.41
124.87
116.27
104.51
92.13
81.93
76.14
75.69
79.82
86.47
93.15
97.95
100.04
99.73
97.86
95.10
91.47
86.28
78.64
68.01
54.69
39.90
25.45
13.01
3.58
-3.03
-8.03
-13.11
-19.75
-28.47
-38.73
-49.21
-58.54
-65.95
-71.68
-76.83
-83.00
-91.72
-104.15
-120.65
-140.33
-160.66
-177.41
-185.29
-179.47
-157.34
-119.90
-71.75
-19.81
28.83
68.97
98.15
116.46
125.31
126.43
121.33
111.49
98.85
85.95
75.57
69.90
69.78
74.41
81.66
88.96
94.28
96.70
96.42
94.26
90.92
86.46
80.31
71.68
60.16
46.24
31.32
17.26
5.68
-2.74
-8.54
-13.23
-18.58
-25.81
-35.08
-45.45
-55.40
-63.63
-69.64
-73.99
-78.11
-83.79
-92.66
-105.71
-122.79
-142.19
-160.45
-172.71
-173.85
-160.18
-130.93
-88.98
-40.19
8.37
50.59
82.79
104.05
115.39
118.59
115.27
106.76
94.57
80.77
68.01
58.86
54.97
56.50
61.99
69.10
75.53
79.79
81.52
81.18
79.41
76.50
72.13
65.64
56.54
44.99
32.01
19.15
7.98
-0.60
-6.74
-11.48
-16.29
-22.35
-29.99
-38.63
-47.13
-54.36
-59.83
-63.90
-67.66
-72.59
-80.12
-91.27
-106.23
-123.87
-141.53
-155.04
-159.68
-151.57
-129.16
-94.14
-51.12
-6.31
34.43
67.02
89.90
103.34
108.62
107.09
99.97
88.64
75.01
61.60
51.02
45.25
44.91
49.13
55.96
63.13
68.90
72.35
73.35
72.09
68.67
63.05
55.14
45.15
33.84
22.29
11.56
2.27
-5.73
-13.12
-20.77
-29.18
-38.20
-47.15
-55.13
-61.49
-66.22
-69.97
-73.94
-79.60
-88.27
-100.60
-115.96
-132.04
-144.96
-150.05
-143.31
-123.01
-90.52
-50.19
-7.93
30.58
61.43
83.05
95.74
100.73
99.36
92.79
82.22
69.32
56.29
45.45
38.71
36.92
39.71
45.63
52.71
59.07
63.32
64.73
63.17
58.90
52.39
44.15
34.71
24.54
14.01
3.38
-7.22
-17.77
-28.11
-37.99
-47.02
-54.80
-61.20
-66.37
-70.86
-75.51
-81.37
-89.56
-100.91
-115.42
-131.58
-146.07
-154.24
-151.46
-134.86
-104.65
-64.43
-20.07
22.13
57.35
83.18
99.43
107.25
108.11
103.29
93.95
81.56
68.10
55.97
47.32
43.52
44.66
49.55
56.19
62.37
66.40
67.34
65.11
60.19
53.29
45.04
35.91
26.17
15.92
5.19
-5.98
-17.49
-29.07
-40.26
-50.53
-59.45
-66.83
-72.92
-78.34
-84.04
-91.15
-100.85
-113.99
-130.58
-149.06
-165.96
-176.34
-175.12
-158.92
-127.67
-84.91
-36.89
9.57
49.07
78.83
98.67
109.91
114.22
112.89
106.93
97.47
86.23
75.39
67.14
62.96
63.19
66.94
72.51
77.98
81.79
83.06
81.54
77.43
71.07
62.75
52.80
41.61
29.69
17.56
5.63
-5.95
-17.28
-28.47
-39.49
-50.00
-59.47
-67.43
-73.86
-79.31
-84.93
-92.22
-102.71
-117.34
-135.80
-155.96
-173.66
-183.53
-180.44
-161.41
-126.91
-81.11
-30.63
17.52
57.94
87.97
107.54
118.14
121.68
119.80
113.79
104.99
95.10
86.05
79.62
76.87
77.78
81.36
86.02
90.15
92.53
92.53
89.92
84.73
77.06
67.15
55.45
42.68
29.71
17.31
5.86
-4.74
-14.93
-25.14
-35.52
-45.81
-55.45
-63.91
-71.07
-77.29
-83.44
-90.76
-100.60
-114.07
-131.41
-151.25
-170.24
-183.35
-185.08
-171.40
-141.43
-98.20
-47.84
2.37
46.24
80.15
103.30
116.79
122.42
121.81
116.29
107.29
96.66
86.66
79.35
75.99
76.59
80.03
84.57
88.56
90.94
91.33
89.75
86.27
80.75
72.95
62.78
50.65
37.45
24.43
12.67
2.61
-6.04
-14.19
-22.80
-32.40
-42.74
-53.01
-62.21
-69.71
-75.58
-80.67
-86.36
-94.30
-105.95
-121.94
-141.37
-161.33
-177.04
-182.85
-174.12
-148.97
-109.36
-60.60
-9.70
36.81
74.56
101.87
119.05
127.41
128.30
122.95
112.82
99.98
87.15
77.06
71.72
71.63
75.75
81.91
87.70
91.43
92.54
91.48
89.05
85.67
81.04
74.29
64.68
52.13
37.67
23.07
10.21
0.13
-7.24
-13.11
-19.09
-26.46
-35.51
-45.56
-55.38
-63.85
-70.57
-76.02
-81.43
-88.32
-98.11
-111.68
-128.94
-148.39
-166.84
-179.70
-181.96
-169.78
-142.04
-101.10
-52.38
-2.65
41.92
77.34
102.23
117.06
123.19
121.98
114.74
103.07
89.26
76.16
66.48
61.98
62.86
67.77
74.40
80.43
84.35
85.70
84.80
82.20
78.15
72.47
64.72
54.67
42.66
29.69
17.11
6.13
-2.74
-9.89
-16.38
-23.41
-31.73
-41.21
-50.96
-59.80
-66.82
-71.92
-75.90
-80.25
-86.69
-96.61
-110.55
-127.66
-145.44
-159.74
-165.69
-159.06
-137.83
-103.21
-59.52
-12.91
30.54
66.40
92.56
108.88
116.32
116.03
109.24
97.48
82.97
68.57
57.19
50.88
50.21
54.12
60.50
67.05
72.12
74.97
75.64
74.43
71.48
66.58
59.42
49.96
38.68
26.59
14.90
4.61
-3.89
-10.90
-17.24
-23.83
-31.22
-39.37
-47.62
-55.08
-61.08
-65.52
-69.03
-72.81
-78.32
-86.87
-99.15
-114.64
-131.22
-145.16
-151.80
-146.90
-128.24
-96.61
-55.94
-12.09
28.93
62.62
86.79
101.30
107.22
105.94
98.88
87.56
73.87
60.21
48.97
41.96
39.86
42.11
47.20
53.28
58.77
62.69
64.57
64.30
61.79
56.93
49.73
40.45
29.78
18.71
8.23
-1.05
-9.12
-16.44
-23.65
-31.21
-39.11
-46.88
-53.91
-59.76
-64.47
-68.59
-73.07
-79.07
-87.67
-99.47
-113.96
-129.16
-141.50
-146.54
-140.34
-120.96
-89.45
-49.78
-7.61
31.38
63.07
85.45
98.46
103.08
100.69
92.77
80.98
67.38
54.28
43.89
37.72
36.23
38.74
43.76
49.53
54.50
57.64
58.44
56.82
52.92
47.02
39.45
30.68
21.22
11.50
1.86
-7.61
-16.94
-26.21
-35.33
-44.08
-52.12
-59.15
-65.11
-70.23
-75.00
-80.15
-86.58
-95.22
-106.65
-120.55
-135.01
-146.53
-150.57
-143.08
-122.11
-88.86
-47.58
-4.26
35.27
66.95
89.13
102.11
107.23
105.95
99.57
89.37
76.96
64.34
53.63
46.48
43.68
44.93
49.05
54.41
59.44
62.95
64.27
63.15
59.60
53.79
46.05
36.81
26.68
16.25
5.94
-4.14
-14.11
-24.22
-34.50
-44.75
-54.45
-63.06
-70.24
-76.06
-81.11
-86.41
-93.26
-102.89
-116.01
-132.02
-148.53
-161.42
-165.77
-157.39
-134.53
-98.76
-54.67
-8.48
33.85
68.13
92.49
107.09
113.16
112.27
105.99
95.94
83.95
72.11
62.49
56.60
55.01
57.25
61.98
67.48
72.23
75.21
75.98
74.48
70.70
64.59
56.16
45.67
33.82
21.63
10.09
-0.25
-9.44
-18.11
-26.96
-36.40
-46.23
-55.81
-64.34
-71.40
-77.13
-82.28
-88.07
-95.88
-106.94
-121.73
-139.29
-156.82
-169.82
-173.07
-162.46
-136.55
-97.50
-50.58
-2.50
40.65
74.94
99.00
113.45
119.73
119.32
113.50
103.72
91.87
80.33
71.42
66.72
66.56
69.90
74.88
79.58
82.69
83.82
83.23
81.32
78.16
73.34
66.27
56.64
44.79
31.75
18.86
7.31
-2.39
-10.53
-17.97
-25.66
-34.16
-43.36
-52.62
-61.07
-68.09
-73.68
-78.60
-84.19
-92.07
-103.65
-119.41
-138.29
-157.19
-171.39
-175.55
-165.57
-140.08
-101.30
-54.43
-6.08
37.75
73.09
98.37
113.87
120.69
120.11
113.45
102.43
89.38
77.00
67.83
63.39
63.77
67.72
73.21
78.27
81.66
83.02
82.64
80.90
77.87
73.19
66.31
56.95
45.43
32.73
20.18
8.94
-0.48
-8.38
-15.64
-23.29
-31.92
-41.37
-50.86
-59.31
-65.98
-70.81
-74.60
-78.74
-84.87
-94.46
-108.20
-125.49
-144.00
-159.66
-167.42
-162.70
-143.03
-109.25
-65.49
-17.97
26.90
64.29
91.84
109.38
118.00
119.15
114.10
104.21
91.23
77.56
65.85
58.27
55.85
58.07
63.20
69.02
73.75
76.53
77.44
76.99
75.45
72.51
67.39
59.37
48.44
35.51
22.22
10.24
0.60
-6.77
-12.85
-19.03
-26.35
-34.99
-44.31
-53.15
-60.50
-66.03
-70.24
-74.33
-79.86
-88.32
-100.57
-116.37
-133.89
-149.59
-158.85
-157.11
-141.51
-112.10
-72.19
-27.31
16.40
53.96
82.55
101.46
111.32
113.28
108.57
98.61
85.34
71.26
59.09
51.05
48.18
50.09
55.23
61.51
67.11
70.93
72.69
72.59
70.84
67.42
61.99
54.29
44.39
33.00
21.25
10.37
1.10
-6.58
-13.38
-20.32
-28.09
-36.78
-45.78
-54.17
-61.21
-66.72
-71.22
-75.75
-81.63
-90.09
-101.96
-117.10
-133.94
-149.21
-158.38
-156.86
-141.61
-112.50
-72.68
-27.80
15.85
53.12
81.12
99.27
108.47
110.09
105.44
95.83
82.93
69.02
56.69
48.22
44.86
46.38
51.35
57.70
63.57
67.77
69.91
70.10
68.45
64.90
59.18
51.16
41.14
30.00
18.91
8.90
0.41
-6.89
-13.90
-21.53
-30.25
-39.73
-49.10
-57.32
-63.79
-68.62
-72.61
-76.97
-83.09
-92.10
-104.54
-119.77
-135.58
-148.17
-152.94
-145.83
-124.96
-91.62
-50.11
-6.42
33.58
65.79
88.38
101.50
106.33
104.28
96.74
85.24
71.71
58.47
47.79
41.38
39.88
42.74
48.47
55.22
61.29
65.52
67.34
66.70
63.72
58.61
51.56
42.90
33.15
23.02
13.21
4.18
-4.08
-11.94
-19.91
-28.27
-36.93
-45.37
-52.97
-59.28
-64.32
-68.67
-73.37
-79.77
-89.13
-102.02
-117.67
-133.49
-145.28
-148.29
-138.78
-115.57
-80.76
-39.19
3.04
40.44
69.49
88.99
99.49
102.36
99.06
90.95
79.47
66.42
53.94
44.14
38.56
37.75
41.11
47.17
54.07
60.11
64.13
65.58
64.41
60.85
55.22
47.87
39.23
29.77
19.97
10.18
0.53
-9.05
-18.65
-28.23
-37.49
-45.93
-53.12
-58.91
-63.64
-68.12
-73.45
-80.86
-91.31
-104.97
-120.63
-135.43
-145.11
-145.18
-132.43
-106.34
-69.59
-27.34
14.34
50.31
77.52
95.22
104.22
105.98
101.96
93.47
81.98
69.29
57.53
48.72
44.22
44.34
48.25
54.27
60.51
65.36
67.82
67.55
64.71
59.65
52.80
44.57
35.38
25.64
15.75
5.95
-3.66
-13.13
-22.49
-31.67
-40.44
-48.46
-55.45
-61.35
-66.43
-71.36
-77.11
-84.88
-95.64
-109.50
-125.01
-138.93
-146.66
-143.66
-127.13
-97.37
-58.00
-14.87
25.86
59.52
83.88
98.91
105.84
106.08
100.76
90.94
78.08
64.33
52.24
44.12
41.24
43.47
49.35
56.69
63.32
67.69
69.09
67.55
63.56
57.72
50.53
42.33
33.27
23.44
12.93
1.90
-9.36
-20.37
-30.61
-39.66
-47.27
-53.50
-58.73
-63.55
-68.75
-75.23
-83.95
-95.53
-109.83
-125.26
-138.60
-145.50
-141.79
-125.01
-95.68
-57.40
-15.77
23.42
55.84
79.38
93.97
100.55
100.24
94.01
82.95
68.79
54.01
41.53
33.85
32.26
36.35
44.18
53.00
60.12
63.79
63.49
59.82
54.02
47.26
40.17
32.72
24.45
14.86
3.80
-8.33
-20.66
-32.22
-42.24
-50.41
-56.92
-62.36
-67.58
-73.54
-81.29
-91.75
-105.24
-120.92
-136.24
-147.18
-149.15
-138.54
-114.29
-78.56
-36.26
6.49
44.28
73.70
93.69
104.84
108.42
105.68
97.75
85.96
72.25
59.10
49.02
43.86
44.18
49.08
56.49
63.89
69.11
70.84
68.81
63.62
56.27
47.74
38.62
29.05
18.85
7.77
-4.23
-16.86
-29.50
-41.36
-51.78
-60.38
-67.29
-73.06
-78.61
-85.04
-93.52
-105.12
-120.31
-138.39
-156.93
-171.75
-177.75
-170.43
-147.69
-110.88
-64.65
-15.53
30.15
67.92
95.85
114.10
123.81
126.24
122.46
113.71
101.86
89.49
79.35
73.52
72.65
75.91
81.35
86.86
90.88
92.78
92.53
90.31
86.06
79.38
69.97
57.90
43.94
29.41
15.70
3.75
-6.32
-15.14
-23.74
-32.94
-42.99
-53.38
-63.26
-71.83
-78.84
-84.84
-91.04
-99.04
-110.41
-126.11
-145.78
-167.23
-186.24
-197.29
-195.04
-176.15
-140.79
-92.87
-38.97
13.65
59.20
94.42
118.67
132.92
138.68
137.38
130.41
119.57
107.27
96.33
89.20
87.24
90.17
96.23
102.95
108.08
110.33
109.64
106.75
102.55
97.45
91.15
82.85
71.87
58.23
42.87
27.51
14.00
3.59
-3.60
-8.67
-13.39
-19.48
-27.84
-38.28
-49.65
-60.48
-69.68
-77.00
-83.07
-89.18
-96.91
-107.72
-122.63
-141.70
-163.41
-184.27
-199.10
-202.22
-189.29
-159.12
-114.43
-61.21
-6.81
42.22
81.70
110.19
128.18
137.00
138.01
132.54
122.24
109.43
96.98
87.71
83.48
84.63
89.84
96.70
102.68
105.98
106.04
103.41
99.19
94.24
88.72
82.08
73.48
62.42
49.17
34.87
21.13
9.43
0.51
-5.87
-10.83
-15.87
-22.20
-30.26
-39.62
-49.23
-57.94
-65.07
-70.67
-75.54
-80.94
-88.28
-98.81
-113.18
-130.98
-150.21
-167.14
-176.88
-174.68
-157.62
-125.87
-82.93
-34.63
12.66
53.75
85.61
107.34
119.40
122.83
118.89
109.15
95.77
81.49
69.20
61.20
58.49
60.55
65.65
71.57
76.43
79.22
79.82
78.63
76.00
71.91
65.91
57.51
46.64
33.96
20.78
8.67
-1.24
-8.70
-14.44
-19.87
-26.36
-34.58
-44.24
-54.21
-63.11
-70.02
-74.86
-78.45
-82.25
-87.90
-96.78
-109.65
-126.09
-144.09
-159.94
-168.81
-166.04
-148.79
-117.32
-75.21
-28.35
16.84
55.22
83.96
102.48
111.68
113.02
108.00
98.16
85.34
71.77
59.80
51.41
47.63
48.35
52.34
57.84
63.18
67.12
69.08
68.87
66.41
61.56
54.20
44.47
32.99
20.77
8.95
-1.66
-10.89
-19.24
-27.48
-36.19
-45.47
-54.81
-63.44
-70.75
-76.59
-81.43
-86.29
-92.51
-101.53
-114.37
-131.03
-149.78
-166.93
-177.38
-176.05
-159.67
-128.22
-85.23
-36.74
10.61
51.52
83.10
104.81
117.59
122.81
121.72
115.49
105.58
93.96
82.96
74.65
70.27
69.88
72.48
76.51
80.49
83.40
84.78
84.44
82.20
77.70
70.63
60.95
49.20
36.45
23.92
12.52
2.50
-6.57
-15.47
-24.88
-34.97
-45.25
-54.91
-63.17
-69.74
-74.98
-79.92
-85.98
-94.64
-106.95
-122.88
-140.72
-156.90
-166.58
-164.90
-148.76
-118.13
-76.42
-29.49
16.14
55.18
84.73
104.29
114.95
118.35
115.94
108.93
98.61
86.58
74.83
65.31
59.45
57.71
59.53
63.50
67.94
71.31
72.66
71.61
68.28
63.08
56.44
48.72
40.14
30.77
20.64
9.74
-1.79
-13.65
-25.33
-36.21
-45.75
-53.62
-59.89
-64.99
-69.66
-74.87
-81.72
-91.19
-103.78
-118.77
-133.82
-145.05
-147.90
-138.73
-116.26
-82.39
-41.70
-0.05
37.30
66.93
87.63
99.81
104.52
102.81
95.59
84.05
69.99
55.80
44.03
36.59
34.14
35.90
40.04
44.42
47.38
48.28
47.40
45.49
43.13
40.27
36.20
29.95
20.85
9.00
-4.56
-18.24
-30.39
-39.99
-46.92
-51.97
-56.48
-61.86
-69.26
-79.22
-91.45
-104.63
-116.32
-123.24
-122.11
-110.68
-88.71
-58.33
-23.49
11.17
41.69
65.58
81.90
90.78
92.77
88.57
79.12
65.97
51.33
37.79
27.63
22.13
21.21
23.60
27.45
31.03
33.34
34.19
33.96
33.08
31.56
28.86
24.08
16.49
5.98
-6.64
-19.92
-32.18
-42.24
-49.78
-55.44
-60.56
-66.61
-74.83
-85.76
-98.99
-112.82
-124.40
-130.08
-126.43
-111.39
-85.26
-50.87
-12.89
23.62
54.60
77.83
92.84
100.21
100.78
95.32
84.69
70.31
54.41
39.76
28.89
23.27
22.82
26.00
30.53
34.29
36.15
36.08
34.86
33.34
31.80
29.66
25.79
19.13
9.33
-2.94
-16.22
-28.82
-39.51
-47.91
-54.53
-60.48
-67.05
-75.29
-85.85
-98.52
-112.02
-123.81
-130.40
-128.22
-114.86
-90.14
-56.45
-18.22
19.44
52.15
77.19
93.65
101.81
102.52
96.73
85.63
70.87
54.74
39.91
28.74
22.56
21.28
23.50
27.16
30.44
32.35
32.90
32.73
32.39
31.84
30.28
26.55
19.73
9.70
-2.67
-15.79
-27.96
-38.05
-45.79
-51.90
-57.69
-64.62
-73.81
-85.64
-99.36
-112.96
-123.33
-126.91
-120.68
-103.29
-75.77
-41.35
-4.69
29.52
57.74
78.11
90.35
95.04
93.16
85.74
74.09
59.96
45.56
33.08
24.11
19.21
17.82
18.66
20.36
22.03
23.38
24.51
25.39
25.60
24.26
20.41
13.50
3.80
-7.64
-19.31
-29.79
-38.31
-44.91
-50.47
-56.34
-64.00
-74.52
-88.02
-103.19
-117.18
-126.00
-125.64
-113.48
-89.42
-56.16
-18.50
18.16
49.34
72.44
86.80
93.07
92.42
86.09
75.32
61.62
46.80
32.90
21.66
14.17
10.61
10.37
12.40
15.58
18.92
21.59
22.86
22.09
18.79
12.83
4.53
-5.44
-16.14
-26.78
-36.84
-46.20
-55.18
-64.54
-75.22
-88.06
-103.05
-118.75
-132.06
-138.75
-134.78
-117.84
-88.53
-50.45
-9.19
29.45
61.10
83.55
96.70
101.63
99.74
92.28
80.47
65.81
50.26
36.01
25.00
18.32
16.02
17.16
20.27
23.86
26.64
27.73
26.51
22.63
16.00
6.84
-4.21
-16.29
-28.45
-40.02
-50.76
-60.99
-71.64
-83.92
-98.85
-116.47
-135.13
-151.26
-160.12
-157.19
-139.89
-108.76
-67.56
-22.14
21.32
57.99
85.17
102.20
109.70
108.85
101.02
87.90
71.61
54.75
39.92
29.23
23.69
23.11
26.28
31.39
36.58
40.27
41.28
38.86
32.68
22.81
9.84
-5.26
-21.24
-36.93
-51.52
-64.88
-77.56
-90.73
-105.82
-123.84
-144.56
-165.90
-183.94
-193.59
-190.09
-170.61
-135.43
-88.12
-34.65
18.24
64.72
100.95
125.39
138.29
141.09
135.73
124.46
109.74
94.17
80.34
70.34
65.36
65.36
69.11
74.53
79.35
81.61
80.02
74.07
63.92
50.21
33.89
15.96
-2.59
-20.96
-38.58
-55.25
-71.18
-87.16
-104.40
-123.94
-145.83
-168.33
-187.72
-199.12
-197.96
-181.47
-149.64
-105.13
-52.55
2.74
55.54
101.44
137.17
160.81
172.05
172.18
163.94
150.89
136.71
124.47
116.16
112.45
112.78
115.65
119.08
121.23
120.79
117.19
110.34
100.33
87.24
71.14
52.35
31.60
10.12
-10.70
-29.64
-46.06
-60.07
-72.47
-84.62
-98.20
-114.81
-135.35
-159.25
-183.95
-205.04
-217.25
-216.06
-199.14
-167.01
-122.66
-70.46
-15.08
39.29
89.05
131.20
163.34
184.07
193.40
192.98
185.73
175.07
164.11
155.00
148.80
145.59
144.76
145.33
146.22
146.43
145.06
141.35
134.68
124.63
111.20
94.90
76.74
58.03
39.98
23.40
8.47
-5.16
-18.18
-31.16
-44.36
-57.63
-70.59
-82.91
-94.47
-105.46
-116.38
-127.96
-141.26
-157.50
-177.60
-201.29
-226.42
-248.65
-262.43
-262.60
-246.21
-213.46
-167.32
-112.29
-52.96
6.72
63.41
113.95
155.17
184.50
200.79
205.09
200.46
191.14
181.14
173.25
168.71
167.35
168.20
170.05
171.75
172.42
171.37
168.04
162.00
152.97
140.97
126.52
110.62
94.55
79.47
66.15
54.67
44.58
35.15
25.76
16.26
6.87
-1.97
-9.97
-17.29
-24.54
-32.66
-42.44
-54.27
-67.90
-82.50
-96.95
-110.28
-121.99
-132.26
-142.08
-153.04
-166.92
-184.94
-206.75
-229.69
-248.95
-258.53
-252.99
-229.27
-187.72
-132.13
-68.70
-4.38
54.59
103.79
140.85
165.28
178.02
180.92
176.44
167.35
156.49
146.40
139.08
135.61
136.02
139.26
143.69
147.50
149.28
148.27
144.29
137.51
128.31
117.11
104.40
90.78
76.89
63.29
50.35
38.17
26.68
15.75
5.42
-4.07
-12.40
-19.42
-25.44
-31.25
-37.89
-46.29
-56.71
-68.68
-81.10
-92.75
-102.74
-110.97
-118.12
-125.49
-134.70
-147.27
-164.04
-184.49
-206.06
-224.01
-232.29
-225.21
-199.56
-156.13
-99.90
-38.63
19.55
68.43
104.98
129.05
142.23
146.46
143.34
134.26
120.96
105.96
92.29
82.74
78.91
80.59
85.97
92.31
97.15
99.04
97.84
94.35
89.62
84.20
77.90
70.01
59.79
47.09
32.61
17.81
4.41
-6.24
-13.71
-18.61
-22.36
-26.60
-32.51
-40.48
-49.99
-59.92
-69.11
-76.82
-83.11
-88.73
-95.01
-103.38
-115.09
-130.76
-149.79
-169.97
-187.32
-196.79
-193.51
-174.55
-140.09
-93.77
-41.77
9.16
53.35
87.52
110.72
123.64
127.58
123.92
114.20
100.34
84.91
70.79
60.48
55.42
55.57
59.51
65.09
70.28
73.70
74.94
74.27
72.11
68.61
63.46
56.05
45.96
33.45
19.53
5.85
-6.05
-15.29
-22.10
-27.66
-33.55
-40.96
-50.14
-60.38
-70.35
-78.79
-85.11
-89.62
-93.49
-98.38
-105.96
-117.42
-132.84
-150.79
-168.08
-180.22
-182.40
-171.04
-145.15
-106.91
-61.21
-14.21
28.44
62.91
87.62
102.80
109.55
109.18
102.99
92.40
79.28
65.89
54.49
46.78
43.47
44.16
47.62
52.30
56.81
60.17
61.70
61.01
57.77
51.86
43.38
32.84
21.14
9.30
-1.78
-11.66
-20.45
-28.68
-36.96
-45.63
-54.55
-63.12
-70.69
-76.87
-81.87
-86.56
-92.28
-100.48
-112.33
-128.03
-146.27
-163.90
-176.25
-178.25
-166.06
-138.65
-98.44
-50.76
-2.24
41.24
75.96
100.68
116.00
123.30
123.97
119.17
110.21
98.81
87.10
77.20
70.61
67.79
68.09
70.18
72.60
74.31
74.83
74.09
72.09
68.57
63.06
55.09
44.58
32.08
18.76
5.99
-5.25
-14.75
-23.11
-31.40
-40.50
-50.65
-61.26
-71.29
-79.76
-86.29
-91.36
-96.16
-102.26
-111.19
-123.90
-140.24
-158.48
-175.15
-185.56
-184.91
-169.95
-140.28
-98.81
-51.02
-3.25
39.06
72.61
96.48
111.35
118.58
119.48
115.19
106.95
96.43
85.69
76.80
71.20
69.26
70.21
72.54
74.69
75.67
75.29
73.93
72.01
69.53
65.84
59.97
51.07
39.12
25.04
10.51
-2.63
-13.11
-20.74
-26.39
-31.56
-37.71
-45.56
-54.86
-64.53
-73.28
-80.23
-85.33
-89.53
-94.35
-101.50
-112.24
-126.89
-144.29
-161.66
-174.81
-179.01
-170.37
-147.22
-110.95
-65.80
-17.70
27.47
65.34
93.74
112.46
122.36
124.70
120.76
111.97
100.22
87.80
77.01
69.60
66.26
66.48
68.87
71.83
74.14
75.29
75.34
74.63
73.28
70.95
66.90
60.34
50.98
39.31
26.58
14.42
4.13
-3.81
-9.94
-15.47
-21.65
-29.20
-37.95
-47.03
-55.37
-62.16
-67.29
-71.38
-75.57
-81.26
-89.74
-101.72
-116.88
-133.44
-148.13
-156.62
-154.69
-139.63
-111.40
-72.95
-29.44
13.26
50.27
78.74
97.91
108.54
111.91
109.31
101.83
90.76
77.78
64.93
54.23
47.16
44.21
44.94
48.14
52.41
56.49
59.56
61.17
61.11
59.26
55.54
49.91
42.59
34.05
24.94
15.93
7.39
-0.74
-8.87
-17.44
-26.66
-36.30
-45.78
-54.42
-61.77
-67.88
-73.34
-79.22
-86.66
-96.47
-108.55
-121.44
-132.27
-137.31
-133.05
-117.51
-91.10
-56.69
-18.83
17.74
49.25
73.58
90.12
99.19
101.44
97.60
88.70
76.25
62.43
49.66
40.06
34.82
33.90
36.19
39.95
43.50
45.67
46.00
44.63
42.04
38.64
34.61
29.81
23.86
16.43
7.32
-3.26
-14.72
-26.18
-36.74
-45.83
-53.38
-59.86
-66.16
-73.30
-82.18
-93.36
-106.64
-120.85
-133.62
-141.65
-141.40
-130.24
-107.56
-75.19
-37.11
1.80
37.08
65.77
86.65
99.74
105.63
104.97
98.48
87.27
73.12
58.48
45.86
37.16
33.06
32.89
34.99
37.44
38.84
38.64
37.11
34.90
32.47
29.73
26.05
20.50
12.42
1.73
-10.87
-24.13
-36.70
-47.63
-56.62
-64.11
-71.04
-78.51
-87.51
-98.64
-111.84
-126.08
-139.20
-147.98
-148.77
-138.70
-116.71
-84.32
-45.30
-4.59
33.12
64.59
88.38
104.42
113.20
115.26
111.05
101.41
87.95
73.11
59.64
49.76
44.43
43.23
44.63
46.82
48.49
49.07
48.65
47.50
45.62
42.55
37.66
30.46
21.04
10.10
-1.25
-11.87
-21.03
-28.61
-35.10
-41.49
-48.94
-58.51
-70.78
-85.44
-101.02
-114.82
-123.37
-123.34
-112.53
-90.84
-60.36
-24.97
10.86
43.18
69.31
88.02
99.19
103.40
101.53
94.78
84.65
72.88
61.22
51.09
43.29
37.91
34.53
32.50
31.25
30.47
29.96
29.57
28.88
27.29
24.11
18.84
11.42
2.28
-7.79
-17.83
-27.16
-35.62
-43.64
-52.26
-62.73
-76.13
-92.48
-110.27
-126.27
-136.16
-135.74
-122.42
-96.37
-60.61
-20.24
19.15
52.91
78.32
94.64
102.53
103.34
98.54
89.53
77.69
64.49
51.40
39.75
30.41
23.74
19.62
17.56
16.98
17.27
17.78
17.77
16.50
13.21
7.50
-0.62
-10.60
-21.53
-32.50
-42.88
-52.57
-62.06
-72.34
-84.58
-99.65
-117.37
-135.98
-151.95
-160.58
-157.37
-139.66
-107.87
-65.75
-19.27
25.17
62.56
90.28
107.98
116.75
118.09
113.29
103.53
90.17
74.98
60.06
47.33
38.04
32.47
30.06
29.78
30.58
31.61
32.22
31.78
29.64
25.22
18.22
8.85
-2.23
-14.10
-25.97
-37.46
-48.66
-60.09
-72.45
-86.31
-101.66
-117.32
-130.68
-137.97
-135.14
-119.33
-90.13
-50.19
-4.62
40.53
79.97
110.36
130.61
141.30
143.77
139.48
129.81
116.29
100.67
84.90
70.79
59.59
51.75
47.02
44.64
43.64
43.11
42.23
40.25
36.53
30.59
22.27
11.81
-0.15
-12.74
-25.23
-37.22
-48.84
-60.79
-74.12
-89.87
-108.47
-129.04
-148.89
-163.71
-168.48
-159.11
-134.07
-95.29
-47.86
1.55
46.63
83.02
108.90
124.46
130.97
129.91
122.73
110.94
96.41
81.30
67.62
56.77
49.18
44.40
41.42
39.15
36.69
33.37
28.69
22.18
13.43
2.24
-11.15
-26.02
-41.25
-55.63
-68.23
-78.82
-87.96
-97.03
-107.88
-122.13
-140.36
-161.14
-180.84
-194.04
-195.12
-180.06
-148.16
-102.60
-49.65
3.28
49.73
85.73
110.13
123.86
128.79
126.85
119.73
109.08
96.76
84.85
75.21
69.07
66.51
66.66
68.04
69.18
69.09
67.29
63.61
57.88
49.78
38.86
24.89
8.21
-10.19
-28.84
-46.31
-61.72
-75.10
-87.52
-100.82
-116.95
-137.00
-160.28
-183.81
-202.69
-211.25
-204.81
-181.29
-142.03
-91.54
-36.25
17.30
63.95
100.76
126.94
143.21
150.94
151.63
146.74
137.83
126.84
116.01
107.65
103.42
103.73
107.48
112.44
116.06
116.34
112.52
105.02
95.05
83.88
72.26
60.22
47.20
32.59
16.15
-1.65
-19.75
-36.92
-52.20
-65.27
-76.53
-86.86
-97.42
-109.40
-123.91
-141.76
-162.83
-185.48
-206.20
-220.00
-221.63
-207.23
-175.79
-129.63
-73.83
-14.82
41.30
89.94
128.49
156.14
173.30
181.06
180.94
174.76
164.72
153.27
142.84
135.36
131.75
131.66
133.58
135.55
135.90
133.82
129.46
123.53
116.74
109.29
100.81
90.60
78.12
63.46
47.42
31.32
16.57
4.10
-5.99
-14.50
-22.84
-32.37
-43.82
-56.99
-70.70
-83.45
-93.98
-101.94
-108.02
-113.81
-121.27
-132.21
-147.81
-167.92
-190.62
-212.04
-226.76
-229.05
-214.50
-181.76
-133.30
-74.97
-14.37
41.33
87.17
121.19
143.90
157.16
162.99
162.96
158.29
150.27
140.61
131.42
124.56
121.09
120.83
122.52
124.42
125.08
123.75
120.41
115.48
109.30
101.95
93.29
83.17
71.73
59.50
47.28
35.76
25.36
15.94
7.06
-1.78
-10.80
-19.86
-28.54
-36.52
-43.85
-51.02
-58.79
-67.74
-78.00
-89.04
-99.93
-109.78
-118.10
-125.10
-131.61
-138.91
-148.34
-160.90
-176.51
-193.44
-207.97
-214.76
-208.12
-183.82
-140.85
-82.23
-14.44
54.53
117.62
170.69
213.09
246.79
274.61
298.39
318.15
332.22
338.08
333.34
316.36
286.41
243.78
190.19
129.15
66.25
8.33
-38.04
-68.66
-83.06
-84.51
-78.65
-71.28
-66.55
-65.96
-68.89
-73.55
-78.20
-81.74
-83.89
-84.91
-85.25
-85.38
-85.63
-86.22
-87.22
-88.70
-90.76
-93.59
-97.44
-102.52
-108.84
-116.18
-124.11
-132.14
-139.90
-147.25
-154.36
-161.71
-170.05
-180.31
-193.18
-208.47
-224.48
-237.76
-243.68
-237.60
-216.48
-180.00
-131.00
-74.78
-17.63
34.74
78.34
111.31
133.65
146.49
151.48
150.48
145.40
138.24
131.00
125.45
122.76
123.19
125.97
129.72
133.05
135.03
135.49
134.78
133.37
131.45
128.79
124.87
119.20
111.69
102.62
92.64
82.46
72.61
63.29
54.34
45.38
36.02
26.11
15.79
5.50
-4.25
-13.21
-21.58
-30.01
-39.34
-50.12
-62.28
-75.10
-87.46
-98.39
-107.55
-115.40
-123.08
-132.13
-143.93
-159.24
-177.57
-196.69
-212.55
-219.96
-213.93
-191.48
-153.01
-102.47
-46.45
7.91
54.85
91.19
116.32
131.38
138.14
138.29
133.39
125.06
115.19
105.86
98.81
95.07
94.58
96.38
99.06
101.31
102.31
101.81
99.95
96.90
92.72
87.26
80.36
72.01
62.51
52.31
41.95
31.82
22.07
12.60
3.31
-5.80
-14.50
-22.40
-29.19
-34.88
-39.87
-44.95
-50.95
-58.39
-67.22
-76.84
-86.37
-95.01
-102.41
-108.78
-114.92
-122.01
-131.30
-143.63
-158.77
-174.82
-188.07
-193.62
-186.76
-164.78
-128.18
-80.90
-29.14
20.51
63.01
95.81
118.66
132.64
139.10
139.12
133.60
123.77
111.49
99.17
89.21
83.28
81.90
84.32
88.95
94.00
97.97
100.02
99.92
97.88
94.15
88.91
82.08
73.54
63.25
51.46
38.74
25.87
13.65
2.59
-7.13
-15.73
-23.66
-31.50
-39.72
-48.58
-57.97
-67.45
-76.38
-84.17
-90.58
-95.87
-100.82
-106.52
-114.15
-124.69
-138.61
-155.40
-173.19
-188.47
-196.61
-193.00
-174.63
-141.44
-96.74
-46.37
3.07
46.11
79.69
103.15
117.47
124.12
124.35
119.11
109.42
96.89
83.68
72.19
64.31
60.84
61.32
64.33
68.10
71.22
72.97
73.33
72.64
71.18
68.93
65.49
60.32
53.02
43.54
32.32
20.18
8.20
-2.62
-11.60
-18.64
-24.23
-29.37
-35.16
-42.41
-51.29
-61.28
-71.37
-80.55
-88.18
-94.32
-99.67
-105.38
-112.81
-123.10
-136.78
-153.24
-170.28
-184.12
-190.04
-183.70
-162.71
-127.69
-82.42
-32.74
15.11
56.23
87.99
110.02
123.37
129.59
130.04
125.83
118.10
108.25
98.04
89.20
83.03
79.91
79.32
80.11
81.05
81.27
80.51
78.96
76.98
74.68
71.82
67.81
61.98
53.92
43.70
31.89
19.50
7.65
-2.71
-11.07
-17.57
-22.94
-28.28
-34.67
-42.76
-52.50
-63.12
-73.49
-82.55
-89.82
-95.52
-100.55
-106.21
-113.90
-124.76
-139.16
-156.22
-173.36
-186.39
-190.34
-181.00
-156.50
-118.32
-71.07
-21.11
25.42
64.19
93.36
113.13
124.75
129.56
128.67
123.07
114.06
103.39
93.08
84.95
80.11
78.67
79.81
82.21
84.48
85.69
85.50
84.10
81.88
79.08
75.57
70.84
64.26
55.45
44.56
32.35
20.03
8.83
-0.43
-7.63
-13.45
-19.02
-25.56
-33.84
-43.87
-54.90
-65.73
-75.18
-82.60
-88.13
-92.65
-97.54
-104.30
-114.18
-127.80
-144.74
-163.05
-179.19
-188.47
-186.20
-169.26
-137.44
-93.86
-44.12
5.32
48.96
83.55
108.17
123.58
131.11
132.05
127.46
118.53
106.91
94.71
84.14
76.82
73.37
73.21
74.97
77.07
78.42
78.60
77.89
76.80
75.57
73.90
70.95
65.72
57.56
46.58
33.75
20.63
8.80
-0.78
-8.13
-14.17
-20.31
-27.77
-37.06
-47.74
-58.71
-68.65
-76.67
-82.61
-87.19
-91.69
-97.77
-106.89
-119.89
-136.41
-154.44
-170.22
-178.89
-175.79
-158.04
-125.82
-82.61
-34.20
13.09
54.13
86.11
108.45
122.02
128.13
127.86
122.19
112.31
99.99
87.51
77.09
70.30
67.50
67.91
69.97
72.10
73.27
73.23
72.36
71.11
69.63
67.46
63.74
57.62
48.75
37.57
25.22
13.22
2.77
-5.60
-12.28
-18.34
-25.04
-33.33
-43.38
-54.62
-65.86
-75.94
-84.04
-90.12
-94.98
-100.06
-107.10
-117.58
-132.17
-149.95
-168.21
-182.57
-187.99
-180.20
-157.29
-120.61
-74.50
-25.08
21.57
60.97
90.91
111.21
122.77
126.82
124.46
116.88
105.67
93.06
81.52
73.15
68.98
68.69
70.87
73.69
75.74
76.42
75.96
74.96
73.77
72.18
69.40
64.46
56.72
46.30
34.12
21.66
10.27
0.78
-6.96
-13.90
-21.31
-30.19
-40.71
-52.13
-63.17
-72.50
-79.46
-84.29
-88.08
-92.51
-99.33
-109.88
-124.62
-142.62
-161.19
-176.09
-182.30
-175.47
-153.50
-117.48
-71.66
-22.16
24.87
64.87
95.55
116.62
128.90
133.48
131.46
124.00
112.84
100.22
88.65
80.20
75.86
75.38
77.41
80.26
82.50
83.45
83.18
82.11
80.57
78.34
74.71
68.80
60.10
48.85
36.14
23.48
12.25
3.08
-4.40
-11.28
-18.87
-27.96
-38.51
-49.63
-60.08
-68.79
-75.41
-80.42
-85.00
-90.65
-98.86
-110.69
-126.27
-144.34
-161.89
-174.47
-177.17
-166.15
-140.18
-101.28
-54.33
-5.54
39.32
76.29
103.66
121.41
130.37
131.56
126.15
115.64
102.17
88.39
76.86
69.43
66.60
67.62
70.78
74.29
76.84
78.02
78.08
77.46
76.30
74.11
69.97
63.03
53.03
40.62
27.27
14.65
3.99
-4.44
-11.35
-18.07
-25.82
-35.15
-45.68
-56.32
-65.80
-73.28
-78.78
-83.20
-88.06
-95.10
-105.73
-120.47
-138.46
-157.00
-171.82
-177.86
-170.75
-148.40
-112.01
-65.95
-16.56
29.76
68.27
96.60
114.62
123.40
124.42
119.10
108.96
95.94
82.45
71.04
63.65
61.02
62.52
66.47
70.90
74.33
76.17
76.61
76.16
75.06
72.99
69.14
62.67
53.22
41.28
28.11
15.37
4.40
-4.24
-11.05
-17.26
-24.26
-32.91
-43.11
-53.89
-63.88
-72.00
-77.96
-82.46
-86.96
-93.22
-102.86
-116.77
-134.58
-154.17
-171.63
-181.82
-179.74
-162.28
-129.54
-85.20
-35.42
13.07
54.92
87.20
109.40
122.37
127.30
125.22
117.15
104.74
90.42
77.25
67.91
63.91
65.06
69.69
75.42
80.16
82.78
83.23
82.17
80.23
77.57
73.69
67.72
58.99
47.55
34.29
20.76
8.57
-1.27
-8.75
-14.85
-21.04
-28.57
-37.90
-48.47
-59.05
-68.35
-75.59
-80.95
-85.40
-90.49
-97.83
-108.77
-123.91
-142.56
-162.29
-178.88
-187.01
-181.83
-160.65
-124.21
-76.81
-24.97
24.58
66.69
98.70
120.21
132.08
135.52
131.70
122.00
108.37
93.47
80.27
71.27
67.69
69.23
74.15
80.12
85.05
87.73
88.03
86.54
83.96
80.52
75.86
69.17
59.86
47.99
34.48
20.88
8.79
-0.87
-8.15
-14.05
-20.09
-27.57
-37.03
-48.07
-59.55
-70.09
-78.67
-85.03
-89.74
-94.06
-99.66
-108.19
-120.91
-137.95
-157.75
-176.66
-189.37
-190.23
-175.19
-143.44
-98.09
-45.31
7.57
54.28
91.05
116.78
132.17
138.64
137.48
129.89
117.41
102.33
87.60
76.13
69.95
69.50
73.57
79.87
85.95
90.04
91.45
90.52
88.00
84.54
80.23
74.62
66.99
56.86
44.36
30.37
16.38
3.97
-5.80
-12.82
-17.99
-22.87
-29.00
-37.22
-47.35
-58.25
-68.46
-76.82
-82.98
-87.51
-91.71
-97.18
-105.47
-117.68
-134.08
-153.57
-173.31
-188.71
-194.36
-185.59
-160.21
-119.66
-68.91
-14.92
35.34
76.84
107.22
126.48
135.87
136.96
131.13
119.88
105.21
89.77
76.50
67.86
65.03
67.58
73.66
80.70
86.39
89.33
89.33
87.08
83.57
79.43
74.58
68.41
60.14
49.47
36.85
23.52
11.03
0.66
-7.10
-12.75
-17.51
-22.88
-29.94
-39.01
-49.52
-60.33
-70.16
-78.18
-84.33
-89.33
-94.52
-101.51
-111.76
-126.13
-144.33
-164.36
-182.40
-193.28
-191.83
-174.58
-141.25
-95.17
-42.49
9.75
55.54
91.30
115.98
130.31
135.68
133.50
125.12
112.25
97.31
83.20
72.62
67.29
67.38
71.52
77.47
82.96
86.51
87.67
86.89
84.89
82.16
78.55
73.39
65.82
55.39
42.46
28.21
14.37
2.47
-6.70
-13.45
-19.01
-24.88
-32.22
-41.28
-51.42
-61.47
-70.31
-77.36
-82.75
-87.35
-92.42
-99.43
-109.72
-124.08
-142.13
-161.76
-178.93
-188.41
-185.14
-166.13
-131.70
-85.66
-34.24
15.90
59.40
93.25
116.66
130.23
135.04
132.29
123.33
110.07
95.09
81.34
71.38
66.67
67.15
71.36
77.07
82.15
85.22
85.96
84.83
82.53
79.46
75.40
69.64
61.47
50.68
37.89
24.45
12.02
1.94
-5.38
-10.51
-14.90
-20.12
-27.24
-36.41
-46.78
-56.97
-65.67
-72.29
-77.15
-81.43
-86.72
-94.59
-106.22
-121.89
-140.65
-159.88
-175.41
-182.24
-175.93
-154.23
-118.18
-72.09
-22.33
24.66
64.05
93.47
112.73
122.88
125.25
121.06
111.60
98.66
84.61
72.18
63.66
60.21
61.52
66.02
71.56
76.21
78.91
79.53
78.53
76.43
73.26
68.54
61.50
51.70
39.47
25.95
12.83
1.60
-6.99
-13.27
-18.43
-23.98
-30.99
-39.66
-49.29
-58.64
-66.60
-72.66
-77.21
-81.33
-86.52
-94.26
-105.62
-120.81
-138.70
-156.50
-170.02
-174.48
-166.02
-143.11
-107.38
-63.26
-16.69
26.64
62.67
89.43
106.78
115.55
116.89
112.05
102.56
90.36
77.78
67.14
60.15
57.45
58.54
62.03
66.28
69.96
72.35
73.30
72.88
70.98
67.22
61.10
52.32
41.20
28.65
16.02
4.50
-5.25
-13.41
-20.79
-28.40
-36.87
-46.15
-55.56
-64.11
-71.07
-76.34
-80.59
-85.11
-91.44
-101.01
-114.57
-131.68
-150.21
-166.35
-175.24
-172.34
-154.98
-123.56
-81.64
-34.91
10.45
49.60
79.81
100.48
112.38
116.78
114.95
108.20
98.07
86.50
75.61
67.21
62.36
61.16
62.78
66.02
69.63
72.73
74.69
75.09
73.47
69.38
62.48
52.86
41.10
28.28
15.61
4.00
-6.19
-15.30
-24.07
-33.24
-43.05
-53.17
-62.82
-71.18
-77.93
-83.45
-88.83
-95.59
-105.29
-118.96
-136.46
-155.95
-173.74
-184.84
-184.30
-168.81
-138.18
-95.57
-46.68
2.02
45.14
79.46
104.04
119.45
126.86
127.42
122.31
113.05
101.72
90.72
82.24
77.56
76.73
78.65
81.63
84.19
85.48
85.43
84.38
82.58
79.81
75.37
68.40
58.40
45.61
31.12
16.57
3.51
-7.17
-15.65
-23.02
-30.79
-40.10
-51.20
-63.34
-75.16
-85.35
-93.33
-99.50
-105.18
-112.22
-122.54
-137.46
-157.00
-179.32
-200.49
-215.04
-217.30
-203.21
-171.90
-126.28
-72.23
-16.90
33.39
74.58
105.17
125.65
137.48
142.19
141.10
135.53
127.09
117.77
109.69
104.55
103.08
104.85
108.42
112.03
114.18
114.09
111.79
107.80
102.67
96.65
89.55
80.87
70.19
57.41
43.00
27.96
13.56
0.96
-9.23
-17.14
-23.69
-30.14
-37.73
-47.07
-58.05
-69.85
-81.41
-91.81
-100.70
-108.38
-115.81
-124.42
-135.84
-151.45
-171.64
-194.99
-217.96
-235.22
-240.99
-230.74
-202.81
-158.99
-104.14
-44.78
12.53
62.61
102.38
130.79
148.41
156.71
157.60
153.05
145.09
135.73
127.03
120.72
117.95
118.82
122.32
126.73
130.21
131.49
130.20
126.66
121.56
115.36
108.10
99.40
88.80
76.08
61.57
46.12
30.97
17.29
5.87
-3.21
-10.60
-17.45
-24.99
-34.13
-45.11
-57.45
-70.13
-82.06
-92.50
-101.35
-109.28
-117.63
-128.10
-142.26
-160.90
-183.23
-206.40
-225.61
-235.12
-229.87
-207.06
-167.34
-114.77
-55.75
2.71
54.64
96.25
126.12
144.69
153.50
154.45
149.51
140.60
129.78
119.17
110.82
106.25
106.04
109.54
115.12
120.71
124.49
125.44
123.47
119.19
113.41
106.62
98.84
89.63
78.51
65.32
50.53
35.21
20.76
8.40
-1.26
-8.50
-14.39
-20.39
-27.79
-37.20
-48.38
-60.35
-71.88
-81.94
-90.21
-97.11
-103.72
-111.45
-121.76
-135.87
-154.15
-175.55
-197.09
-213.93
-220.31
-211.23
-184.37
-141.16
-86.71
-28.30
26.78
73.14
108.10
131.51
144.69
149.31
146.96
139.11
127.53
114.47
102.50
93.91
90.06
90.88
94.98
100.20
104.40
106.17
105.17
101.91
97.32
92.10
86.42
79.88
71.79
61.59
49.31
35.64
21.85
9.31
-1.00
-8.84
-14.88
-20.30
-26.45
-34.18
-43.61
-54.07
-64.48
-73.76
-81.33
-87.30
-92.52
-98.28
-106.08
-117.24
-132.53
-151.57
-172.33
-190.91
-202.11
-200.68
-183.14
-149.24
-102.41
-48.89
4.14
50.71
87.25
112.83
128.30
135.17
134.82
128.48
117.56
104.05
90.49
79.52
73.04
71.73
74.79
80.34
86.13
90.33
92.01
91.20
88.55
84.78
80.19
74.51
67.13
57.51
45.62
32.15
18.37
5.73
-4.62
-12.35
-18.01
-22.78
-28.03
-34.72
-43.03
-52.35
-61.60
-69.73
-76.25
-81.36
-85.93
-91.18
-98.40
-108.69
-122.59
-139.69
-158.15
-174.46
-183.95
-181.92
-165.24
-133.71
-90.42
-41.00
8.09
51.32
85.33
108.99
122.80
127.96
125.78
117.62
105.23
90.90
77.34
67.09
61.82
61.71
65.54
71.16
76.37
79.71
80.77
80.04
78.27
75.91
72.72
67.94
60.73
50.77
38.52
25.16
12.21
0.95
-7.97
-14.71
-20.11
-25.30
-31.34
-38.73
-47.32
-56.37
-64.88
-72.07
-77.65
-82.08
-86.37
-91.90
-99.98
-111.49
-126.40
-143.24
-158.97
-169.25
-169.56
-156.57
-129.56
-90.83
-45.24
1.25
43.28
77.22
101.56
116.38
122.56
121.21
113.56
101.19
86.18
71.13
58.58
50.42
47.31
48.60
52.62
57.38
61.29
63.54
64.16
63.63
62.39
60.40
57.19
52.07
44.55
34.67
23.19
11.31
0.32
-8.94
-16.27
-22.23
-27.80
-33.92
-41.08
-49.11
-57.32
-64.82
-70.98
-75.74
-79.64
-83.68
-89.05
-96.84
-107.78
-121.80
-137.60
-152.38
-162.17
-162.66
-150.69
-125.39
-88.87
-45.66
-1.36
38.99
71.98
96.12
111.33
118.18
117.40
110.00
97.54
82.33
67.19
54.78
46.89
43.98
45.20
48.92
53.38
57.31
60.10
61.80
62.60
62.53
61.26
58.11
52.44
43.96
33.07
20.81
8.63
-2.18
-10.99
-17.99
-24.09
-30.46
-37.83
-46.24
-55.02
-63.10
-69.66
-74.46
-78.03
-81.49
-86.21
-93.48
-104.12
-118.03
-133.83
-148.57
-158.15
-158.30
-145.95
-120.55
-84.46
-42.33
0.27
38.53
69.35
91.55
105.25
111.14
110.02
102.88
91.14
76.90
62.70
50.97
43.39
40.44
41.40
44.81
49.07
53.04
56.22
58.56
60.08
60.50
59.21
55.45
48.78
39.44
28.34
16.82
6.14
-3.05
-10.84
-18.00
-25.42
-33.71
-42.78
-51.96
-60.33
-67.13
-72.19
-76.01
-79.62
-84.34
-91.49
-101.93
-115.69
-131.39
-146.11
-155.67
-155.69
-143.07
-117.26
-80.79
-38.47
3.97
41.64
71.52
92.56
105.09
109.89
107.86
100.00
87.84
73.55
59.76
48.89
42.43
40.64
42.59
46.79
51.74
56.41
60.28
63.06
64.44
63.96
61.12
55.62
47.65
37.88
27.30
16.88
7.23
-1.59
-9.94
-18.34
-27.16
-36.34
-45.41
-53.69
-60.58
-65.93
-70.16
-74.32
-79.79
-87.97
-99.64
-114.38
-130.09
-143.07
-148.83
-143.45
-125.03
-94.56
-55.81
-14.15
25.08
57.96
82.53
98.53
106.66
107.86
103.08
93.45
80.59
66.66
54.10
44.99
40.58
40.93
44.99
51.10
57.46
62.60
65.62
66.13
64.11
59.75
53.34
45.28
35.99
25.91
15.39
4.60
-6.39
-17.54
-28.66
-39.41
-49.30
-57.90
-65.04
-70.98
-76.39
-82.36
-90.14
-100.75
-114.35
-129.66
-143.72
-152.33
-151.23
-137.59
-111.18
-74.74
-33.15
8.03
44.23
72.73
92.74
104.71
109.48
107.86
100.62
88.97
74.81
60.69
49.30
42.66
41.52
45.10
51.43
58.08
62.98
64.98
64.00
60.72
56.12
50.89
45.23
38.77
30.87
20.98
9.05
-4.38
-18.27
-31.39
-42.82
-52.21
-59.85
-66.55
-73.35
-81.33
-91.49
-104.55
-120.44
-137.81
-153.69
-163.81
-163.72
-150.37
-123.42
-85.66
-42.23
1.01
39.21
69.55
91.20
104.60
110.58
109.90
103.38
92.35
78.90
65.73
55.52
50.13
50.02
54.16
60.43
66.44
70.29
71.03
68.73
64.18
58.31
51.71
44.39
35.82
25.34
12.60
-2.10
-17.78
-33.08
-46.70
-57.89
-66.68
-73.79
-80.44
-88.02
-97.88
-111.05
-127.79
-147.01
-165.85
-179.82
-183.83
-173.83
-148.37
-109.40
-61.88
-12.19
33.67
71.56
99.70
118.15
127.93
130.21
126.12
116.97
104.56
91.34
79.98
72.70
70.61
73.29
78.97
85.17
89.49
90.45
87.67
81.73
73.69
64.49
54.59
43.87
31.84
18.10
2.63
-14.00
-30.70
-46.27
-59.76
-70.82
-79.79
-87.61
-95.57
-105.15
-117.71
-134.08
-153.96
-175.35
-194.45
-206.22
-205.69
-189.55
-157.37
-112.01
-58.85
-4.24
46.01
87.85
119.29
140.10
151.12
153.76
149.78
141.33
130.83
120.79
113.32
109.63
109.74
112.54
116.35
119.53
121.06
120.63
118.40
114.58
109.10
101.58
91.52
78.75
63.63
47.13
30.63
15.44
2.34
-8.70
-18.46
-28.17
-38.87
-51.02
-64.28
-77.74
-90.37
-101.56
-111.39
-120.72
-131.07
-144.17
-161.34
-182.70
-206.39
-228.45
-243.46
-246.07
-232.59
-202.26
-157.39
-102.69
-43.91
13.44
64.88
107.35
139.21
160.10
170.81
173.04
169.21
161.96
153.82
146.86
142.45
141.17
142.69
146.00
149.69
152.38
153.06
151.19
146.69
139.74
130.70
120.00
108.12
95.44
82.22
68.59
54.68
40.79
27.41
15.19
4.64
-4.14
-11.58
-18.64
-26.43
-35.88
-47.29
-60.35
-74.20
-87.80
-100.32
-111.45
-121.50
-131.45
-142.71
-156.86
-175.07
-197.21
-221.16
-242.71
-256.23
-256.20
-239.01
-204.18
-154.67
-96.05
-34.98
22.42
71.67
110.34
137.87
154.95
163.05
163.99
159.80
152.60
144.54
137.59
133.24
132.15
133.98
137.51
141.08
143.14
142.76
139.67
134.14
126.70
117.82
107.77
96.66
84.53
71.50
57.86
44.09
30.86
18.83
8.57
0.24
-6.47
-12.39
-18.66
-26.41
-36.29
-48.22
-61.44
-74.75
-87.02
-97.66
-106.86
-115.49
-124.93
-136.69
-152.02
-171.30
-193.39
-215.14
-231.60
-236.98
-226.46
-197.94
-153.14
-97.36
-37.92
17.96
65.08
101.08
126.08
141.59
149.37
150.89
147.36
140.15
131.09
122.36
115.98
113.21
114.09
117.52
121.76
125.06
126.25
124.92
121.24
115.69
108.69
100.50
91.15
80.71
69.28
57.16
44.78
32.68
21.38
11.30
2.64
-4.66
-10.97
-16.98
-23.49
-31.21
-40.51
-51.20
-62.63
-73.87
-84.12
-92.98
-100.71
-108.09
-116.33
-126.76
-140.50
-157.95
-178.12
-198.18
-213.46
-218.44
-208.37
-181.13
-138.37
-85.31
-29.27
22.60
65.24
96.54
116.92
128.15
132.18
130.55
124.56
115.67
105.83
97.24
91.78
90.39
92.74
97.44
102.69
106.91
109.20
109.32
107.45
103.82
98.46
91.27
82.27
71.83
60.62
49.47
39.06
29.62
20.99
12.79
4.73
-3.20
-10.71
-17.48
-23.41
-28.80
-34.38
-40.92
-48.97
-58.45
-68.76
-78.89
-87.90
-95.33
-101.40
-107.07
-113.73
-122.90
-135.67
-152.11
-170.67
-187.98
-199.28
-199.54
-185.04
-154.86
-111.53
-60.50
-8.56
38.01
75.02
100.88
116.15
122.53
121.98
116.24
106.94
95.88
85.06
76.49
71.67
71.10
74.13
79.27
84.72
89.03
91.39
91.63
89.97
86.63
81.68
75.05
66.74
56.96
46.25
35.34
24.93
15.51
7.18
-0.18
-6.84
-12.93
-18.44
-23.30
-27.61
-31.79
-36.51
-42.38
-49.72
-58.23
-67.20
-75.76
-83.31
-89.82
-95.86
-102.43
-110.70
-121.66
-135.64
-151.85
-167.92
-179.94
-183.29
-173.99
-150.27
-113.49
-68.05
-20.12
24.24
60.63
87.04
103.56
111.46
112.29
107.48
98.43
86.87
74.89
64.71
58.13
55.96
57.89
62.64
68.54
74.04
78.08
80.15
80.14
78.12
74.15
68.34
60.84
52.02
42.35
32.42
22.76
13.68
5.25
-2.60
-9.93
-16.65
-22.56
-27.53
-31.64
-35.32
-39.25
-44.07
-50.06
-57.06
-64.48
-71.62
-77.99
-83.53
-88.62
-94.10
-100.96
-110.21
-122.39
-137.08
-152.41
-164.99
-170.57
-165.15
-146.50
-115.18
-74.59
-30.11
12.57
48.93
76.50
94.84
104.82
107.79
105.07
97.88
87.59
75.96
64.99
56.59
52.03
51.55
54.38
59.08
64.10
68.24
70.92
72.03
71.72
70.06
66.93
62.12
55.52
47.29
37.84
27.81
17.85
8.46
0.02
-7.28
-13.37
-18.39
-22.65
-26.70
-31.10
-36.33
-42.56
-49.52
-56.69
-63.48
-69.57
-75.00
-80.27
-86.10
-93.36
-102.87
-115.07
-129.64
-145.07
-158.52
-166.24
-164.49
-150.80
-125.05
-89.65
-49.05
-8.33
28.07
57.28
78.20
90.99
96.47
95.66
89.73
80.12
68.67
57.56
48.86
44.00
43.38
46.29
51.23
56.55
60.99
64.01
65.70
66.39
66.24
64.98
62.00
56.73
48.89
38.85
27.54
16.16
5.84
-2.76
-9.56
-15.00
-19.87
-24.94
-30.67
-37.06
-43.79
-50.28
-56.06
-60.99
-65.30
-69.64
-74.86
-81.85
-91.27
-103.30
-117.21
-131.15
-142.11
-146.52
-141.23
-124.68
-97.63
-63.15
-25.81
9.78
40.05
63.13
78.62
87.01
89.10
85.75
78.02
67.44
56.03
45.96
38.93
35.78
36.26
39.32
43.64
48.11
52.07
55.26
57.46
58.37
57.47
54.24
48.44
40.33
30.69
20.57
10.92
2.26
-5.46
-12.71
-20.13
-28.08
-36.51
-44.90
-52.58
-59.06
-64.27
-68.74
-73.45
-79.67
-88.51
-100.52
-115.16
-130.46
-143.16
-149.29
-145.37
-129.64
-102.84
-68.13
-30.23
6.06
37.04
60.79
76.95
86.10
89.13
86.92
80.44
70.97
60.17
49.98
42.14
37.79
37.17
39.75
44.38
49.77
54.73
58.39
60.19
59.80
57.09
52.07
44.98
36.23
26.39
16.00
5.49
-5.01
-15.64
-26.53
-37.65
-48.61
-58.79
-67.55
-74.64
-80.44
-85.97
-92.75
-102.27
-115.38
-131.53
-148.47
-162.29
-168.41
-162.92
-143.94
-112.53
-72.40
-28.86
12.77
48.42
75.96
94.90
105.73
109.37
106.88
99.53
89.01
77.41
66.96
59.53
56.20
57.04
61.22
67.28
73.59
78.65
81.37
81.10
77.65
71.31
62.66
52.48
41.51
30.24
18.85
7.26
-4.69
-17.05
-29.61
-41.97
-53.62
-64.19
-73.57
-82.02
-90.21
-99.17
-110.21
-124.53
-142.52
-163.09
-183.15
-198.04
-202.58
-192.74
-167.04
-127.30
-78.19
-25.86
23.75
66.21
99.18
122.11
135.63
140.84
139.08
132.05
121.86
111.02
101.98
96.54
95.40
98.00
102.88
108.34
113.01
116.13
117.32
116.37
112.97
106.71
97.32
84.97
70.37
54.66
39.10
24.66
11.76
0.15
-10.85
-22.05
-33.98
-46.66
-59.63
-72.19
-83.77
-94.28
-104.27
-114.92
-127.86
-144.57
-165.54
-189.54
-213.16
-231.34
-238.70
-231.19
-207.40
-168.89
-119.65
-64.80
-9.51
41.87
86.03
120.79
145.10
159.02
163.84
161.71
155.38
147.59
140.72
136.45
135.60
138.01
142.64
147.91
152.15
154.15
153.37
149.95
144.34
136.98
128.05
117.47
105.13
91.08
75.76
59.96
44.68
30.85
18.97
8.96
0.16
-8.45
-17.84
-28.61
-40.78
-53.88
-67.13
-79.83
-91.58
-102.51
-113.23
-124.78
-138.54
-155.76
-176.94
-200.98
-224.77
-243.48
-251.70
-245.05
-221.66
-182.71
-132.07
-75.20
-17.83
35.09
79.94
114.71
138.84
153.09
159.15
159.29
155.84
150.94
146.28
143.17
142.40
144.16
147.93
152.57
156.65
158.88
158.46
155.21
149.39
141.45
131.85
120.94
109.02
96.43
83.54
70.71
58.25
46.32
35.05
24.55
14.97
6.43
-1.21
-8.47
-16.16
-25.17
-36.10
-48.87
-62.81
-76.85
-89.96
-101.57
-111.80
-121.39
-131.57
-143.76
-159.18
-178.23
-199.79
-220.76
-236.31
-240.94
-230.13
-201.98
-158.16
-103.67
-45.41
9.73
56.56
92.49
117.37
132.56
140.04
141.68
139.14
134.08
128.26
123.51
121.32
122.37
126.24
131.62
136.76
140.24
141.37
140.16
137.02
132.33
126.13
118.14
108.10
96.11
82.83
69.37
56.89
46.19
37.36
29.80
22.57
14.97
6.80
-1.52
-9.33
-16.20
-22.32
-28.50
-35.80
-44.99
-56.11
-68.42
-80.69
-91.77
-101.12
-109.01
-116.43
-124.88
-135.87
-150.50
-168.83
-189.29
-208.36
-220.97
-221.68
-206.44
-174.25
-127.94
-73.55
-18.50
30.57
69.53
97.16
114.50
123.56
126.25
124.01
118.08
109.99
101.72
95.39
92.62
93.93
98.54
104.72
110.52
114.45
115.96
115.22
112.77
108.99
103.85
97.02
88.25
77.71
66.14
54.59
44.08
35.16
27.75
21.24
14.83
7.98
0.62
-6.88
-13.94
-20.21
-25.78
-31.30
-37.70
-45.72
-55.54
-66.59
-77.77
-87.92
-96.37
-103.22
-109.40
-116.36
-125.68
-138.53
-155.06
-173.90
-191.80
-204.02
-205.38
-191.95
-162.61
-119.85
-69.21
-17.63
28.63
65.55
91.82
108.14
116.13
117.42
113.35
105.30
95.07
84.92
77.16
73.45
74.26
78.76
85.27
91.92
97.28
100.58
101.66
100.54
97.31
91.96
84.52
75.33
65.04
54.48
44.40
35.24
26.96
19.22
11.61
3.91
-3.76
-11.00
-17.37
-22.69
-27.25
-31.72
-36.97
-43.61
-51.75
-60.94
-70.32
-79.02
-86.57
-93.05
-99.21
-106.27
-115.58
-128.12
-143.90
-161.36
-177.18
-186.80
-185.59
-170.36
-140.77
-99.62
-52.25
-4.84
37.21
70.53
93.97
108.05
114.05
113.38
107.42
97.67
86.08
74.91
66.38
62.03
62.26
66.27
72.35
78.58
83.42
86.04
86.37
84.73
81.56
77.07
71.31
64.19
55.68
45.93
35.38
24.63
14.34
5.07
-2.85
-9.39
-14.79
-19.45
-23.88
-28.58
-33.91
-40.12
-47.14
-54.72
-62.39
-69.71
-76.36
-82.36
-88.14
-94.46
-102.36
-112.82
-126.28
-142.03
-157.78
-169.76
-173.49
-165.25
-143.39
-109.27
-66.94
-22.03
19.97
55.01
81.10
98.05
106.72
108.33
104.05
95.17
83.35
70.67
59.49
51.78
48.66
49.95
54.36
59.93
64.83
67.93
69.02
68.59
67.23
65.19
62.11
57.30
50.14
40.54
29.19
17.31
6.28
-2.92
-10.03
-15.55
-20.42
-25.60
-31.69
-38.73
-46.25
-53.57
-60.04
-65.37
-69.74
-73.74
-78.24
-84.24
-92.64
-103.95
-117.92
-133.04
-146.47
-154.42
-153.10
-140.06
-115.19
-80.99
-41.91
-2.98
31.57
59.15
78.86
90.91
96.00
94.91
88.57
78.32
66.10
54.17
44.65
38.92
37.28
38.97
42.61
46.78
50.47
53.23
54.96
55.60
54.91
52.36
47.46
40.05
30.56
19.94
9.40
-0.14
-8.40
-15.76
-23.05
-30.97
-39.70
-48.78
-57.34
-64.55
-70.04
-74.08
-77.61
-81.93
-88.38
-98.00
-110.97
-126.19
-140.97
-151.44
-153.44
-143.90
-122.02
-89.80
-51.50
-12.40
22.86
51.27
71.78
84.82
91.49
92.86
89.80
83.12
73.92
63.72
54.25
47.04
43.04
42.35
44.41
48.10
52.26
55.84
58.06
58.39
56.52
52.43
46.35
38.71
30.04
20.74
10.97
0.70
-10.19
-21.67
-33.45
-44.97
-55.59
-64.81
-72.50
-78.98
-84.94
-91.46
-99.73
-110.71
-124.70
-140.61
-155.67
-165.75
-166.43
-154.49
-129.28
-93.23
-51.14
-8.75
28.97
58.96
80.29
93.51
99.79
100.27
95.92
87.75
77.18
66.08
56.46
50.01
47.52
48.73
52.44
56.94
60.56
62.18
61.32
58.18
53.28
47.24
40.39
32.70
23.80
13.25
0.86
-13.07
-27.70
-41.90
-54.60
-65.21
-73.80
-81.00
-87.80
-95.35
-104.80
-117.12
-132.74
-150.91
-169.30
-183.92
-189.91
-183.01
-161.13
-125.34
-79.81
-30.56
16.34
56.29
86.94
108.02
120.42
125.48
124.45
118.52
109.13
98.09
87.53
79.44
75.15
74.93
77.93
82.55
87.00
89.76
89.99
87.53
82.63
75.68
67.05
56.95
45.51
32.86
19.20
4.79
-10.02
-24.83
-39.19
-52.68
-64.95
-75.84
-85.44
-94.23
-103.07
-113.22
-126.14
-142.94
-163.51
-185.80
-205.78
-218.06
-217.47
-200.75
-167.65
-121.19
-66.83
-10.98
40.51
83.44
115.65
136.85
148.07
151.13
148.15
141.29
132.65
124.20
117.59
113.93
113.52
115.73
119.29
122.71
124.84
125.11
123.41
119.80
114.23
106.41
96.07
83.21
68.35
52.50
36.85
22.35
9.36
-2.43
-13.80
-25.59
-38.25
-51.66
-65.19
-77.99
-89.44
-99.49
-108.77
-118.61
-130.75
-146.80
-167.44
-191.63
-216.10
-235.86
-245.36
-240.21
-218.53
-181.43
-132.48
-76.62
-19.07
35.55
83.43
121.84
149.24
165.40
171.56
169.99
163.57
155.14
147.12
141.23
138.52
139.23
142.73
147.64
152.17
154.75
154.36
150.89
144.78
136.76
127.37
116.80
104.93
91.62
76.98
61.45
45.94
31.44
18.78
8.27
-0.45
-8.34
-16.60
-26.24
-37.66
-50.54
-64.04
-77.14
-89.12
-99.85
-109.79
-119.93
-131.60
-146.20
-164.71
-187.00
-211.08
-233.00
-247.39
-248.96
-234.04
-201.85
-154.78
-97.77
-37.01
21.37
72.37
112.69
140.95
157.51
164.06
163.06
157.18
148.89
140.25
132.99
128.45
127.45
129.95
134.95
140.69
145.24
147.13
145.76
141.29
134.36
125.59
115.44
104.17
91.97
79.14
66.05
53.11
40.64
28.93
18.18
8.55
0.09
-7.41
-14.48
-21.94
-30.59
-40.94
-52.85
-65.69
-78.51
-90.48
-101.20
-110.91
-120.40
-130.89
-143.79
-160.25
-180.43
-202.84
-223.96
-238.56
-240.98
-226.88
-194.83
-147.15
-89.40
-28.83
27.55
74.63
109.87
133.14
145.82
149.99
147.78
141.29
132.58
123.78
116.89
113.36
113.71
117.38
122.90
128.45
132.49
134.14
133.17
129.81
124.36
117.00
107.81
96.96
84.84
72.06
59.34
47.20
35.93
25.50
15.77
6.68
-1.65
-9.03
-15.39
-21.03
-26.67
-33.18
-41.29
-51.19
-62.42
-74.01
-84.87
-94.26
-102.11
-109.12
-116.57
-126.05
-138.98
-155.95
-176.08
-196.56
-212.70
-218.86
-210.13
-184.15
-142.25
-89.46
-32.97
19.96
63.94
96.48
117.68
129.15
132.87
130.55
123.68
113.90
103.25
94.01
88.19
86.84
89.74
95.52
102.16
107.83
111.31
112.26
110.89
107.59
102.56
95.75
87.10
76.77
65.37
53.77
42.87
33.19
24.70
16.99
9.48
1.89
-5.74
-13.01
-19.53
-25.23
-30.54
-36.23
-43.08
-51.47
-61.16
-71.42
-81.26
-89.97
-97.36
-103.94
-110.72
-119.09
-130.37
-145.31
-163.34
-182.04
-197.09
-203.11
-195.32
-171.33
-132.37
-83.15
-30.48
18.83
59.80
90.12
109.81
120.21
122.97
119.57
111.44
100.31
88.37
78.06
71.40
69.46
72.05
77.82
84.87
91.34
96.02
98.41
98.62
96.88
93.32
87.81
80.25
70.78
60.01
48.81
38.12
28.54
20.11
12.52
5.30
-1.84
-8.84
-15.38
-21.14
-26.13
-30.78
-35.83
-41.97
-49.52
-58.23
-67.34
-75.98
-83.49
-89.85
-95.66
-102.05
-110.36
-121.74
-136.59
-153.97
-171.27
-184.28
-188.18
-178.90
-154.76
-117.30
-71.14
-22.53
22.42
59.35
86.28
103.29
111.61
112.75
108.13
99.16
87.56
75.40
64.95
58.05
55.64
57.49
62.36
68.47
74.16
78.27
80.31
80.32
78.50
75.06
70.06
63.51
55.48
46.28
36.35
26.27
16.53
7.51
-0.61
-7.73
-13.87
-19.18
-23.93
-28.53
-33.52
-39.35
-46.18
-53.82
-61.72
-69.24
-75.95
-81.79
-87.15
-92.80
-99.74
-108.97
-121.20
-136.29
-152.60
-166.89
-174.72
-171.70
-155.09
-125.00
-84.62
-39.39
4.74
42.96
72.53
92.79
104.42
108.61
106.50
99.26
88.29
75.49
63.14
53.44
47.95
47.14
50.29
55.88
62.03
67.18
70.40
71.49
70.73
68.60
65.35
60.96
55.14
47.61
38.38
27.85
16.83
6.26
-3.07
-10.76
-16.91
-22.05
-26.92
-32.24
-38.42
-45.49
-53.04
-60.42
-67.04
-72.57
-77.20
-81.53
-86.51
-93.19
-102.53
-115.10
-130.55
-147.21
-161.80
-170.05
-167.72
-152.19
-123.54
-84.87
-41.35
1.31
38.49
67.55
87.83
99.95
104.94
103.83
97.60
87.57
75.61
64.04
55.12
50.39
50.23
53.70
59.09
64.51
68.59
70.86
71.52
71.13
70.03
68.01
64.42
58.48
49.82
38.80
26.59
14.73
4.59
-3.20
-9.05
-14.17
-19.99
-27.55
-36.93
-47.31
-57.37
-65.90
-72.34
-76.98
-80.86
-85.32
-91.73
-101.12
-113.88
-129.37
-145.58
-159.01
-165.36
-160.66
-142.75
-112.29
-72.83
-29.71
11.53
46.66
73.51
91.75
102.05
105.37
102.60
94.75
83.34
70.49
58.62
49.89
45.52
45.50
48.73
53.55
58.43
62.41
65.24
67.07
68.03
67.85
65.92
61.47
54.10
44.08
32.40
20.50
9.72
0.84
-6.28
-12.48
-18.90
-26.42
-35.19
-44.52
-53.31
-60.52
-65.75
-69.50
-72.97
-77.73
-85.17
-96.16
-110.59
-127.16
-143.17
-154.80
-157.85
-148.97
-126.99
-93.54
-52.80
-10.31
28.70
60.60
83.81
98.42
105.34
105.64
100.34
90.63
78.22
65.28
54.13
46.54
43.28
43.99
47.46
52.19
56.96
61.04
64.07
65.83
65.96
63.93
59.29
51.95
42.40
31.61
20.64
10.28
0.70
-8.40
-17.59
-27.27
-37.34
-47.28
-56.26
-63.72
-69.49
-74.07
-78.42
-83.86
-91.70
-102.82
-117.13
-133.10
-147.55
-156.15
-154.59
-140.11
-112.69
-75.35
-33.26
7.83
43.27
70.46
88.89
99.32
102.94
100.72
93.54
82.55
69.45
56.57
46.24
40.23
39.18
42.51
48.61
55.51
61.44
65.17
66.14
64.35
60.16
54.09
46.66
38.26
29.07
19.08
8.15
-3.74
-16.30
-28.94
-40.81
-51.15
-59.59
-66.30
-71.99
-77.69
-84.62
-93.90
-106.32
-121.75
-138.76
-154.22
-163.74
-162.82
-148.43
-120.35
-81.57
-37.49
5.87
43.48
72.61
92.64
104.35
108.95
107.42
100.65
89.81
76.77
63.97
53.95
48.58
48.53
53.05
60.26
67.85
73.76
76.66
76.16
72.65
66.90
59.66
51.37
41.99
31.22
18.69
4.39
-11.14
-26.86
-41.59
-54.36
-64.78
-73.21
-80.47
-87.67
-96.02
-106.65
-120.45
-137.53
-156.68
-174.82
-187.28
-188.91
-175.86
-147.18
-105.48
-56.29
-6.35
38.43
74.36
100.27
116.81
125.39
127.29
123.53
115.17
103.82
91.70
81.36
74.90
73.32
76.12
81.56
87.31
91.30
92.31
90.06
85.09
78.14
69.74
60.01
48.67
35.39
20.04
3.04
-14.71
-32.00
-47.71
-61.18
-72.37
-81.87
-90.70
-100.14
-111.52
-126.02
-144.26
-165.63
-187.75
-206.46
-216.56
-213.31
-193.90
-158.60
-110.82
-56.23
-1.23
48.59
89.42
119.57
139.05
149.09
151.41
147.91
140.59
131.45
122.53
115.59
111.90
111.75
114.45
118.53
122.32
124.43
124.08
121.01
115.32
107.14
96.58
83.85
69.38
53.85
38.06
22.70
8.14
-5.65
-18.95
-32.09
-45.22
-58.27
-70.93
-82.87
-93.97
-104.43
-114.99
-126.93
-141.88
-161.10
-184.59
-210.25
-233.76
-249.47
-252.08
-238.41
-208.26
-164.37
-111.24
-53.89
3.05
55.75
101.16
137.01
162.06
176.39
181.41
179.62
173.90
166.93
160.76
156.68
155.26
156.35
159.22
162.65
165.27
165.92
163.93
159.11
151.70
142.14
130.93
118.51
105.24
91.48
77.47
63.47
49.76
36.62
24.34
13.14
3.06
-6.14
-15.00
-24.26
-34.64
-46.55
-59.91
-74.21
-88.65
-102.54
-115.47
-127.50
-139.17
-151.56
-166.15
-184.26
-206.24
-230.55
-253.32
-269.11
-272.32
-259.15
-228.78
-183.56
-128.12
-67.99
-8.45
46.12
92.44
128.40
153.13
167.12
172.16
170.83
165.91
159.83
154.35
150.61
149.15
149.99
152.55
155.81
158.54
159.63
158.37
154.50
148.08
139.45
129.00
117.16
104.35
90.93
77.19
63.42
49.93
37.14
25.52
15.47
7.09
0.07
-6.43
-13.53
-22.31
-33.35
-46.46
-60.76
-74.95
-87.90
-99.06
-108.70
-117.87
-128.07
-140.92
-157.68
-178.56
-202.09
-224.75
-241.29
-245.93
-234.06
-203.92
-157.50
-100.17
-39.18
18.35
67.16
104.63
130.62
146.47
154.10
155.31
151.69
144.91
136.78
129.33
124.25
122.47
123.83
127.20
131.04
134.01
135.29
134.67
132.18
127.88
121.64
113.30
102.92
90.95
78.17
65.54
53.80
43.36
34.10
25.58
17.27
8.85
0.41
-7.69
-15.05
-21.61
-27.83
-34.58
-42.80
-52.96
-64.81
-77.36
-89.39
-99.85
-108.46
-115.82
-123.22
-132.40
-144.94
-161.66
-181.85
-202.72
-219.46
-226.22
-217.79
-191.59
-148.93
-94.92
-37.02
17.25
62.33
95.68
117.48
129.48
133.84
132.35
126.46
117.66
107.76
98.88
92.93
90.98
92.94
97.55
102.97
107.46
109.94
110.11
108.22
104.62
99.52
92.82
84.42
74.45
63.34
51.82
40.57
30.11
20.56
11.81
3.68
-3.91
-10.89
-17.20
-22.91
-28.36
-34.12
-40.79
-48.68
-57.59
-66.93
-75.87
-83.85
-90.77
-97.22
-104.26
-113.18
-125.15
-140.68
-159.04
-177.81
-192.87
-199.11
-191.91
-168.85
-130.87
-82.32
-29.85
19.65
60.86
91.09
110.20
119.68
121.54
117.64
109.52
98.74
87.04
76.43
68.70
65.03
65.57
69.46
75.09
80.74
85.06
87.26
87.20
85.01
80.92
75.08
67.59
58.70
48.82
38.58
28.63
19.45
11.21
3.76
-3.14
-9.69
-15.82
-21.34
-26.13
-30.39
-34.70
-39.82
-46.31
-54.27
-63.19
-72.17
-80.37
-87.33
-93.21
-98.75
-105.09
-113.44
-124.71
-139.01
-154.99
-169.66
-178.63
-177.26
-162.23
-132.96
-92.17
-45.25
1.39
42.15
73.54
94.48
105.70
108.78
105.42
97.24
85.95
73.53
62.12
53.69
49.49
49.69
53.43
59.16
65.24
70.39
73.90
75.54
75.35
73.41
69.69
64.16
56.95
48.38
38.99
29.41
20.17
11.56
3.64
-3.70
-10.57
-16.91
-22.55
-27.28
-31.16
-34.62
-38.39
-43.21
-49.49
-57.00
-65.05
-72.73
-79.38
-84.94
-90.03
-95.73
-103.30
-113.76
-127.31
-142.99
-158.25
-169.26
-171.65
-161.89
-138.61
-103.41
-60.56
-15.81
25.29
58.81
83.00
97.97
104.88
105.10
99.88
90.47
78.44
65.85
54.92
47.55
44.70
46.16
50.68
56.57
62.26
66.68
69.39
70.39
69.77
67.58
63.71
58.07
50.68
41.77
31.78
21.30
10.95
1.34
-7.15
-14.29
-20.19
-25.14
-29.69
-34.32
-39.44
-45.19
-51.43
-57.81
-63.92
-69.48
-74.46
-79.14
-84.05
-89.95
-97.67
-107.92
-120.91
-135.82
-150.45
-161.29
-164.29
-156.01
-135.04
-102.63
-62.60
-20.24
19.27
52.11
76.45
92.17
100.19
101.70
97.88
89.86
78.97
66.99
55.93
47.68
43.46
43.50
46.89
52.04
57.24
61.24
63.53
64.25
63.84
62.53
60.18
56.27
50.32
42.15
32.11
21.10
10.19
0.34
-7.92
-14.60
-20.19
-25.43
-31.05
-37.49
-44.80
-52.64
-60.38
-67.46
-73.51
-78.59
-83.16
-88.05
-94.38
-103.18
-115.10
-129.78
-145.46
-158.93
-166.10
-163.14
-147.82
-120.40
-83.78
-42.66
-2.14
33.58
62.03
82.41
95.05
100.74
100.28
94.58
84.89
73.02
61.21
51.65
45.87
44.27
46.12
49.99
54.39
58.34
61.51
64.02
65.97
67.13
66.82
64.19
58.60
50.03
39.18
27.33
15.94
6.09
-1.87
-8.47
-14.78
-21.96
-30.63
-40.65
-51.11
-60.80
-68.73
-74.62
-79.01
-83.04
-88.24
-95.99
-107.21
-121.92
-138.81
-155.11
-166.92
-170.06
-161.34
-139.71
-106.77
-66.44
-23.80
16.33
50.41
76.64
94.62
104.81
107.99
105.11
97.47
86.84
75.42
65.47
58.75
56.11
57.29
61.16
66.18
71.01
74.84
77.44
78.89
79.18
77.98
74.64
68.57
59.61
48.33
35.94
23.88
13.26
4.40
-3.30
-10.89
-19.43
-29.36
-40.25
-51.06
-60.62
-68.21
-73.91
-78.67
-83.97
-91.38
-102.10
-116.50
-133.75
-151.54
-166.22
-173.42
-169.19
-151.37
-120.48
-79.86
-34.80
9.11
47.30
77.21
98.14
110.63
115.76
114.64
108.48
98.78
87.48
76.69
68.26
63.36
62.24
64.28
68.39
73.39
78.24
82.17
84.58
84.94
82.84
78.03
70.61
61.04
50.13
38.78
27.68
17.15
7.05
-3.04
-13.47
-24.30
-35.20
-45.57
-54.80
-62.65
-69.38
-75.78
-83.06
-92.50
-105.11
-120.93
-138.53
-154.75
-165.20
-165.31
-151.98
-124.85
-86.64
-42.46
1.82
41.20
72.66
95.15
109.04
115.22
114.66
108.44
98.06
85.63
73.67
64.50
59.63
59.37
62.84
68.52
74.76
80.26
84.26
86.40
86.45
84.20
79.48
72.29
63.00
52.33
41.20
30.37
20.21
10.61
1.15
-8.60
-18.87
-29.43
-39.75
-49.18
-57.29
-64.11
-70.25
-76.86
-85.38
-97.02
-111.99
-128.90
-144.57
-154.48
-154.18
-140.77
-114.17
-77.36
-35.49
5.72
41.60
69.48
88.70
99.88
104.11
102.34
95.56
85.07
72.77
61.07
52.32
48.15
48.92
53.59
60.20
66.55
70.98
72.64
71.67
68.69
64.37
59.07
52.69
44.87
35.18
23.58
10.43
-3.38
-16.82
-28.92
-39.08
-47.32
-54.13
-60.44
-67.30
-75.82
-86.80
-100.50
-116.16
-131.69
-143.79
-148.54
-142.64
-124.60
-95.49
-58.83
-19.48
17.70
49.18
73.09
89.04
97.38
98.77
94.07
84.64
72.54
60.38
50.72
45.30
44.47
47.19
51.54
55.63
58.20
58.94
58.21
56.51
53.90
49.82
43.38
33.79
20.97
5.74
-10.32
-25.40
-38.16
-48.14
-55.90
-62.80
-70.52
-80.60
-93.93
-110.30
-128.06
-144.12
-154.34
-154.68
-142.48
-117.59
-82.61
-42.19
-1.64
34.61
63.85
85.13
98.61
104.87
104.54
98.48
88.13
75.73
63.94
55.20
50.92
51.06
54.28
58.59
62.18
64.01
63.92
62.26
59.30
54.80
48.00
38.05
24.58
8.16
-9.71
-27.04
-42.16
-54.27
-63.78
-72.13
-81.32
-93.30
-109.26
-128.99
-150.39
-169.54
-181.41
-181.25
-166.27
-136.72
-96.10
-50.00
-4.35
36.20
69.10
93.62
110.08
118.94
120.70
116.11
106.69
94.92
83.75
75.82
72.55
73.76
77.80
82.32
85.22
85.36
82.73
78.17
72.53
66.10
58.37
48.30
35.00
18.38
-0.56
-19.99
-37.88
-52.79
-64.36
-73.43
-81.78
-91.56
-104.69
-122.24
-143.73
-166.77
-187.13
-199.45
-198.74
-181.96
-149.30
-104.37
-53.11
-2.16
43.06
79.40
106.01
123.62
133.50
136.88
134.78
128.43
119.50
110.12
102.50
98.28
98.04
101.11
105.83
110.17
112.39
111.46
107.19
100.00
90.60
79.60
67.34
53.94
39.42
23.89
7.65
-8.84
-25.01
-40.37
-54.61
-67.66
-79.57
-90.60
-101.09
-111.65
-123.26
-137.27
-154.97
-176.78
-201.31
-224.89
-242.14
-247.40
-236.59
-208.53
-165.38
-111.85
-53.75
3.36
55.15
98.77
132.76
156.79
171.36
177.77
177.83
173.70
167.65
161.69
157.40
155.63
156.29
158.54
161.06
162.61
162.41
160.29
156.38
150.85
143.69
134.73
123.84
111.19
97.42
83.46
70.33
58.80
49.15
41.05
33.73
26.29
18.00
8.52
-1.90
-12.68
-23.16
-33.02
-42.44
-52.07
-62.72
-74.93
-88.71
-103.46
-118.27
-132.26
-144.98
-156.50
-167.46
-178.88
-192.07
-208.35
-228.33
-251.26
-274.30
-292.80
-301.32
-295.42
-273.13
-235.55
-186.20
-129.71
-70.53
-12.32
42.05
90.09
129.75
159.57
179.23
189.72
193.07
191.82
188.34
184.49
181.49
179.89
179.59
179.99
180.22
179.49
177.41
173.98
169.34
163.42
155.92
146.33
134.40
120.43
105.35
90.52
77.19
66.05
56.96
49.09
41.29
32.57
22.53
11.44
0.09
-10.67
-20.35
-29.13
-37.81
-47.47
-58.98
-72.53
-87.50
-102.68
-116.75
-128.79
-138.67
-147.12
-155.62
-166.09
-180.34
-199.34
-222.25
-245.97
-265.33
-274.22
-267.47
-242.58
-200.60
-145.88
-84.82
-24.15
30.64
76.14
111.12
136.08
152.47
162.04
166.35
166.67
164.11
159.87
155.27
151.63
149.83
149.94
151.21
152.46
152.65
151.31
148.54
144.74
140.12
134.51
127.34
118.04
106.43
93.01
78.90
65.53
54.15
45.32
38.71
33.23
27.48
20.25
11.08
0.38
-10.80
-21.27
-30.24
-37.72
-44.53
-51.92
-61.05
-72.45
-85.77
-99.85
-113.14
-124.40
-133.14
-139.92
-146.17
-153.75
-164.52
-179.68
-199.15
-221.04
-241.48
-255.12
-256.31
-240.77
-207.17
-157.95
-98.86
-37.42
19.21
66.02
100.93
124.47
138.69
145.94
148.16
146.68
142.59
137.06
131.48
127.22
125.12
125.20
126.62
128.15
128.73
127.86
125.66
122.48
118.52
113.51
106.86
98.04
87.03
74.48
61.59
49.63
39.42
31.07
23.92
17.00
9.48
1.08
-7.81
-16.41
-24.02
-30.48
-36.37
-42.75
-50.68
-60.66
-72.38
-84.77
-96.56
-106.80
-115.34
-122.94
-131.06
-141.42
-155.39
-173.30
-193.78
-213.42
-227.14
-229.31
-215.66
-184.85
-139.39
-85.09
-29.31
21.20
62.04
91.68
110.89
121.59
125.72
124.84
120.20
113.14
105.29
98.41
93.93
92.60
94.14
97.53
101.39
104.53
106.34
106.69
105.70
103.37
99.41
93.36
84.98
74.53
62.94
51.46
41.22
32.80
25.92
19.73
13.25
5.84
-2.41
-10.83
-18.57
-25.11
-30.68
-36.15
-42.64
-50.95
-61.08
-72.25
-83.24
-92.95
-100.90
-107.43
-113.57
-120.75
-130.41
-143.58
-160.25
-178.86
-196.03
-206.87
-206.32
-190.69
-159.27
-114.94
-63.44
-11.73
34.13
70.34
95.81
111.38
118.80
119.79
115.73
107.92
97.91
87.63
79.04
73.68
72.17
74.08
78.18
82.98
87.23
90.18
91.60
91.47
89.76
86.27
80.79
73.27
64.02
53.74
43.29
33.41
24.44
16.27
8.51
0.79
-6.97
-14.53
-21.44
-27.41
-32.51
-37.27
-42.47
-48.78
-56.38
-64.93
-73.65
-81.73
-88.71
-94.75
-100.54
-107.22
-116.00
-127.83
-142.86
-159.92
-176.17
-187.32
-188.64
-176.33
-149.15
-109.18
-61.38
-12.18
32.41
68.35
94.05
109.91
117.28
117.69
112.43
102.81
90.51
77.66
66.55
59.01
55.92
56.98
60.94
66.16
71.17
75.04
77.38
78.20
77.54
75.33
71.34
65.42
57.62
48.34
38.23
28.01
18.27
9.28
1.06
-6.49
-13.42
-19.65
-25.13
-29.95
-34.45
-39.16
-44.58
-50.91
-57.97
-65.25
-72.18
-78.43
-84.11
-89.84
-96.55
-105.31
-116.92
-131.39
-147.52
-162.58
-172.60
-173.27
-161.28
-135.64
-98.36
-54.02
-8.49
32.74
65.97
89.72
104.31
110.95
110.96
105.52
95.85
83.56
70.73
59.63
52.16
49.28
50.70
55.19
60.92
66.26
70.10
72.07
72.40
71.42
69.40
66.27
61.73
55.41
47.22
37.46
26.75
15.92
5.75
-3.24
-10.89
-17.39
-23.25
-29.11
-35.50
-42.70
-50.50
-58.33
-65.47
-71.39
-76.06
-80.01
-84.24
-89.95
-98.28
-109.87
-124.51
-140.81
-155.89
-165.85
-166.53
-154.84
-130.02
-94.15
-51.72
-8.30
31.08
63.10
86.46
101.39
108.80
109.65
104.81
95.36
82.99
69.96
58.73
51.18
48.09
48.95
52.26
56.36
59.93
62.49
64.16
65.29
65.96
65.71
63.71
59.14
51.60
41.45
29.69
17.72
6.80
-2.30
-9.60
-15.78
-21.89
-28.79
-36.85
-45.72
-54.54
-62.33
-68.44
-72.85
-76.24
-79.75
-84.68
-92.22
-103.09
-117.18
-133.16
-148.30
-158.75
-160.36
-150.04
-126.91
-92.87
-52.12
-9.99
28.65
60.49
84.05
99.30
106.92
107.78
102.80
93.26
81.01
68.34
57.59
50.47
47.58
48.34
51.36
55.14
58.55
61.19
63.13
64.56
65.33
64.79
62.07
56.48
47.95
37.24
25.68
14.68
5.16
-2.81
-9.93
-17.26
-25.71
-35.45
-45.93
-56.10
-64.92
-71.81
-76.96
-81.26
-86.14
-93.10
-103.36
-117.29
-133.89
-150.60
-163.40
-167.79
-160.12
-138.95
-105.74
-64.50
-20.70
20.47
55.22
81.64
99.38
108.95
111.22
107.19
98.29
86.46
74.06
63.40
56.10
52.76
52.90
55.40
59.00
62.78
66.30
69.43
71.97
73.46
73.12
70.12
64.07
55.19
44.45
33.15
22.44
12.90
4.38
-3.84
-12.61
-22.44
-33.32
-44.65
-55.55
-65.23
-73.32
-80.07
-86.26
-93.19
-102.30
-114.67
-130.36
-147.74
-163.38
-172.49
-170.39
-154.12
-123.73
-82.54
-36.15
9.29
48.88
79.87
101.69
115.01
120.91
120.26
113.89
102.97
89.39
75.56
63.97
56.50
53.86
55.59
60.34
66.31
71.93
75.99
77.90
77.50
74.92
70.44
64.28
56.64
47.60
37.22
25.65
13.17
0.24
-12.59
-24.75
-35.86
-45.77
-54.62
-62.77
-70.78
-79.41
-89.51
-101.81
-116.39
-132.07
-146.01
-154.15
-152.19
-137.33
-109.45
-71.53
-28.72
13.28
49.94
78.70
98.88
110.80
115.04
112.14
102.94
89.06
73.09
58.10
46.81
40.71
39.61
42.07
46.07
49.90
52.71
54.47
55.54
56.02
55.48
52.91
47.23
37.84
25.02
10.00
-5.46
-19.71
-31.69
-41.34
-49.39
-57.18
-66.16
-77.52
-91.68
-107.95
-124.18
-136.94
-142.22
-136.65
-118.71
-89.54
-52.71
-13.18
24.18
55.79
79.79
95.65
103.59
104.12
98.04
86.70
72.21
57.17
44.08
34.59
29.21
27.42
28.11
30.19
32.93
35.86
38.58
40.45
40.50
37.69
31.26
21.10
7.90
-6.98
-21.95
-35.69
-47.55
-57.81
-67.61
-78.62
-92.51
-110.14
-130.70
-151.31
-167.25
-173.09
-164.48
-139.81
-101.14
-53.72
-4.42
40.28
75.96
100.81
115.09
120.16
117.58
108.81
95.35
79.19
62.68
48.29
37.95
32.46
31.40
33.37
36.66
39.75
41.64
41.75
39.68
35.03
27.35
16.44
2.57
-13.38
-30.07
-46.18
-60.82
-73.98
-86.59
-100.27
-116.69
-136.62
-159.04
-180.80
-196.97
-202.13
-192.07
-165.21
-123.37
-71.33
-15.61
37.18
81.80
115.15
136.28
145.95
145.94
138.50
126.09
111.24
96.46
84.01
75.56
71.79
72.15
75.08
78.59
80.94
81.09
78.66
73.65
66.02
55.55
42.02
25.53
6.68
-13.36
-33.17
-51.56
-67.88
-82.34
-96.02
-110.71
-128.24
-149.54
-173.67
-197.36
-215.50
-222.59
-214.58
-190.22
-151.31
-101.98
-47.25
7.94
59.45
104.00
139.13
163.34
176.36
179.25
174.29
164.39
152.57
141.39
132.80
127.92
126.97
129.24
133.16
136.73
138.05
135.86
129.78
120.17
107.91
93.87
78.72
62.73
45.93
28.31
9.98
-8.64
-26.89
-44.13
-59.90
-74.12
-87.12
-99.46
-111.89
-125.31
-140.85
-159.59
-181.87
-206.50
-230.18
-247.89
-254.24
-245.29
-219.84
-179.78
-129.05
-72.32
-13.94
42.50
93.80
137.09
169.90
190.88
200.39
200.55
194.64
186.08
177.58
170.81
166.51
164.67
164.90
166.47
168.44
169.76
169.43
166.71
161.15
152.72
141.74
128.83
114.73
100.17
85.69
71.56
57.85
44.51
31.52
19.01
7.23
-3.62
-13.51
-22.80
-32.16
-42.31
-53.80
-66.67
-80.54
-94.75
-108.57
-121.58
-133.73
-145.43
-157.46
-171.01
-187.48
-207.76
-231.42
-255.91
-276.58
-287.68
-284.15
-263.31
-225.70
-174.65
-115.09
-52.25
9.14
65.13
112.50
148.86
173.05
185.50
188.25
184.40
177.28
169.61
163.17
158.85
156.85
156.87
158.22
159.96
161.00
160.37
157.44
151.95
144.02
134.06
122.60
110.15
97.06
83.47
69.44
55.13
40.91
27.45
15.46
5.41
-2.76
-9.85
-17.07
-25.65
-36.29
-48.84
-62.35
-75.53
-87.34
-97.47
-106.46
-115.61
-126.57
-140.91
-159.59
-182.23
-206.58
-228.34
-241.75
-241.03
-222.25
-184.94
-132.57
-71.78
-10.44
44.53
88.68
120.43
140.46
150.56
152.66
148.53
139.92
128.90
117.87
109.23
104.64
104.43
107.49
111.71
114.93
115.79
114.09
110.55
106.07
101.07
95.14
87.28
76.58
62.92
47.27
31.40
17.24
6.01
-2.25
-8.73
-15.16
-22.95
-32.63
-43.58
-54.54
-64.24
-72.06
-78.30
-84.13
-91.11
-100.90
-114.74
-132.94
-154.27
-175.51
-191.66
-197.02
-187.00
-159.99
-118.25
-67.44
-14.83
32.98
71.69
99.75
117.64
126.67
128.09
123.11
113.21
100.59
88.01
78.14
72.66
71.75
74.19
78.04
81.52
83.61
84.21
83.64
82.19
79.63
75.25
68.28
58.34
45.90
32.15
18.71
6.89
-2.76
-10.64
-17.84
-25.57
-34.54
-44.64
-55.03
-64.57
-72.39
-78.33
-83.02
-87.76
-94.17
-103.76
-117.33
-134.42
-152.74
-168.26
-175.94
-171.22
-151.73
-118.37
-75.29
-28.68
15.14
51.54
78.24
95.15
103.31
104.05
98.58
88.23
74.83
60.81
48.82
40.96
38.11
39.67
43.94
48.84
52.80
55.09
55.76
55.21
53.65
50.84
46.21
39.22
29.85
18.75
7.09
-3.81
-13.06
-20.52
-26.79
-32.84
-39.51
-47.10
-55.26
-63.18
-70.09
-75.61
-80.03
-84.29
-89.71
-97.72
-109.30
-124.37
-141.24
-156.47
-165.38
-163.32
-147.38
-117.58
-77.22
-31.97
11.92
49.38
77.68
96.30
106.16
108.65
104.96
96.21
83.88
70.10
57.47
48.34
44.09
44.59
48.43
53.56
58.14
61.16
62.45
62.33
61.03
58.36
53.73
46.55
36.64
24.57
11.58
-0.84
-11.48
-19.89
-26.50
-32.37
-38.65
-46.09
-54.68
-63.73
-72.22
-79.31
-84.74
-88.97
-93.15
-98.80
-107.41
-119.93
-136.11
-154.01
-169.87
-178.80
-176.07
-158.78
-127.10
-84.51
-36.81
9.62
49.60
80.22
100.88
112.48
116.45
114.20
106.97
96.18
83.65
71.58
62.14
56.88
56.27
59.56
65.12
70.97
75.48
77.70
77.53
75.46
72.06
67.71
62.34
55.57
47.05
36.73
25.09
13.10
1.87
-7.67
-15.15
-20.89
-25.74
-30.82
-36.99
-44.58
-53.27
-62.30
-70.80
-78.16
-84.31
-89.69
-95.19
-101.89
-110.96
-123.22
-138.75
-156.18
-172.47
-183.08
-183.14
-169.04
-139.96
-98.53
-50.21
-1.62
41.39
75.25
98.84
112.89
118.90
118.29
112.23
101.96
89.20
76.25
65.51
58.81
56.79
58.77
63.12
67.92
71.72
73.83
74.38
73.87
72.69
70.79
67.64
62.45
54.63
44.23
32.03
19.37
7.75
-1.84
-9.22
-15.11
-20.73
-27.19
-35.04
-43.99
-53.16
-61.53
-68.38
-73.61
-77.74
-81.75
-86.77
-93.87
-103.86
-116.95
-132.37
-148.01
-160.45
-165.56
-159.61
-140.61
-109.26
-68.99
-25.05
17.01
52.79
79.87
97.69
106.93
108.76
104.44
95.33
83.14
70.05
58.38
50.05
46.03
46.03
48.84
52.82
56.62
59.58
61.62
62.87
63.26
62.28
59.19
53.45
45.06
34.77
23.82
13.50
4.58
-2.94
-9.70
-16.66
-24.50
-33.36
-42.74
-51.77
-59.66
-66.03
-71.17
-75.89
-81.41
-88.93
-99.28
-112.40
-126.97
-140.26
-148.59
-148.19
-136.52
-113.26
-80.63
-42.82
-4.74
29.43
57.07
77.23
90.13
96.38
96.59
91.39
81.80
69.44
56.55
45.47
38.02
35.02
36.01
39.63
44.12
47.93
50.08
50.35
49.06
46.68
43.54
39.56
34.34
27.35
18.30
7.33
-4.94
-17.59
-29.68
-40.58
-50.06
-58.31
-65.77
-73.09
-80.98
-90.24
-101.54
-114.91
-129.33
-142.35
-150.42
-149.83
-138.05
-114.69
-81.98
-44.02
-5.60
29.25
57.94
79.52
93.95
101.57
102.73
97.89
88.10
75.24
61.81
50.39
42.86
39.75
40.23
42.59
44.98
46.16
45.86
44.54
42.88
41.13
38.78
34.74
27.84
17.46
4.00
-11.28
-26.66
-40.58
-52.22
-61.65
-69.70
-77.57
-86.56
-97.81
-111.96
-128.73
-146.49
-162.05
-171.22
-169.86
-155.38
-127.80
-89.97
-46.72
-3.43
35.46
67.25
90.96
106.64
114.72
115.64
110.17
99.66
86.31
72.90
62.09
55.56
53.61
55.10
58.06
60.57
61.45
60.55
58.45
55.87
52.99
49.21
43.37
34.32
21.56
5.63
-12.03
-29.54
-45.34
-58.69
-69.86
-79.97
-90.55
-103.19
-119.08
-138.46
-160.11
-181.05
-196.76
-202.18
-193.21
-168.23
-128.90
-79.89
-27.46
22.23
64.69
97.69
120.92
135.23
141.74
141.50
135.55
125.36
112.97
100.83
91.36
86.23
85.84
89.18
94.29
98.95
101.39
100.73
97.01
90.80
82.78
73.37
62.62
50.33
36.37
20.84
4.25
-12.65
-28.99
-44.18
-57.93
-70.38
-81.96
-93.25
-104.90
-117.79
-132.90
-151.10
-172.35
-194.92
-215.16
-228.05
-228.63
-213.67
-182.72
-138.33
-85.12
-28.57
26.20
75.05
115.12
144.68
163.20
171.35
170.90
164.43
154.87
144.93
136.76
131.72
130.30
132.06
135.90
140.29
143.75
145.20
144.12
140.50
134.65
126.88
117.42
106.35
93.80
80.04
65.59
51.14
37.42
24.95
13.81
3.68
-6.13
-16.37
-27.55
-39.80
-52.76
-65.86
-78.55
-90.52
-101.80
-112.70
-123.82
-135.99
-150.38
-168.03
-189.32
-212.91
-235.43
-251.79
-256.62
-245.97
-218.68
-176.58
-123.81
-65.54
-6.87
47.80
94.83
131.55
156.48
169.62
172.61
168.37
160.31
151.57
144.44
140.16
139.08
140.78
144.38
148.72
152.66
155.28
156.05
154.73
151.20
145.38
137.24
126.92
114.84
101.70
88.36
75.53
63.59
52.48
41.80
31.13
20.30
9.57
-0.52
-9.49
-17.26
-24.34
-31.67
-40.30
-50.86
-63.29
-76.88
-90.52
-103.19
-114.35
-124.20
-133.56
-143.89
-156.78
-173.47
-194.07
-216.81
-237.89
-252.02
-253.80
-239.29
-207.42
-160.45
-103.38
-42.71
15.13
65.07
104.06
131.12
146.95
153.31
152.53
146.99
139.02
130.73
123.90
119.86
119.28
121.90
126.68
132.06
136.56
139.07
139.12
136.64
131.88
125.08
116.51
106.53
95.58
84.15
72.66
61.36
50.34
39.54
28.92
18.58
8.78
-0.20
-8.15
-15.14
-21.55
-28.06
-35.42
-44.14
-54.32
-65.55
-77.00
-87.77
-97.24
-105.39
-112.89
-121.07
-131.57
-145.79
-164.05
-184.91
-204.73
-218.14
-219.41
-204.38
-172.13
-125.61
-70.96
-15.46
34.52
75.00
104.66
124.05
134.51
137.39
133.96
125.75
114.81
103.65
94.71
89.64
88.88
91.65
96.35
101.29
105.22
107.57
108.28
107.46
105.10
100.98
94.84
86.65
76.79
66.05
55.34
45.36
36.36
28.12
20.17
12.11
3.86
-4.28
-11.80
-18.34
-23.93
-29.09
-34.62
-41.25
-49.29
-58.46
-68.04
-77.16
-85.26
-92.31
-98.90
-106.11
-115.27
-127.55
-143.38
-161.75
-179.82
-193.14
-196.57
-185.98
-159.81
-120.03
-71.70
-21.47
24.44
61.77
88.84
106.01
114.65
116.23
112.03
103.37
91.94
79.98
69.86
63.47
61.63
63.88
68.78
74.53
79.62
83.15
84.89
84.93
83.45
80.51
76.06
70.09
62.75
54.36
45.29
35.99
26.80
17.98
9.73
2.16
-4.66
-10.74
-16.23
-21.40
-26.66
-32.45
-39.09
-46.63
-54.74
-62.83
-70.23
-76.54
-81.82
-86.75
-92.45
-100.21
-111.10
-125.34
-141.87
-157.98
-169.68
-172.54
-163.12
-140.23
-105.67
-63.72
-19.95
20.40
53.72
78.43
94.57
103.03
104.88
101.12
92.87
81.73
69.75
59.19
51.84
48.65
49.41
53.00
57.83
62.45
65.90
67.86
68.43
67.82
66.17
63.31
58.93
52.76
44.77
35.31
25.07
14.94
5.74
-2.02
-8.24
-13.25
-17.68
-22.27
-27.62
-34.01
-41.26
-48.84
-56.00
-62.10
-66.92
-70.76
-74.38
-78.89
-85.41
-94.86
-107.55
-122.81
-138.57
-151.45
-157.29
-152.36
-134.75
-105.21
-67.21
-25.87
13.54
47.10
72.81
90.38
100.50
104.02
101.73
94.47
83.54
70.88
58.78
49.37
43.95
42.70
44.71
48.47
52.48
55.70
57.78
58.83
59.13
58.75
57.35
54.36
49.16
41.55
31.88
21.07
10.37
0.92
-6.67
-12.58
-17.57
-22.70
-28.80
-36.06
-44.01
-51.72
-58.30
-63.22
-66.68
-69.44
-72.66
-77.60
-85.30
-96.31
-110.29
-125.61
-139.22
-147.16
-145.57
-132.01
-106.57
-72.03
-33.07
5.12
38.38
64.34
82.36
92.89
96.70
94.60
87.50
76.74
64.27
52.37
43.06
37.51
35.78
36.96
39.72
42.83
45.63
47.97
49.94
51.54
52.36
51.73
48.92
43.54
35.78
26.47
16.79
7.83
0.19
-6.27
-12.30
-18.85
-26.56
-35.36
-44.50
-52.87
-59.56
-64.25
-67.42
-70.16
-73.85
-79.77
-88.74
-100.73
-114.49
-127.41
-135.89
-136.24
-125.84
-104.27
-73.62
-37.91
-1.88
30.40
56.36
75.06
86.64
91.67
90.84
84.83
74.75
62.20
49.23
37.93
29.90
25.93
25.84
28.73
33.31
38.29
42.60
45.54
46.70
45.95
43.42
39.38
34.13
27.92
20.83
12.81
3.83
-6.02
-16.37
-26.64
-36.19
-44.61
-51.80
-58.01
-63.78
-69.89
-77.19
-86.46
-98.08
-111.49
-124.81
-134.86
-137.85
-130.65
-112.05
-83.46
-48.59
-12.27
21.10
48.61
69.08
82.57
89.57
90.49
85.77
76.21
63.40
49.68
37.61
29.22
25.38
25.62
28.44
31.97
34.74
36.09
36.16
35.55
34.75
33.70
31.65
27.54
20.43
10.09
-2.82
-16.91
-30.57
-42.51
-52.25
-60.17
-67.27
-74.84
-84.06
-95.75
-110.05
-126.09
-141.75
-153.72
-158.16
-151.79
-133.15
-103.32
-65.82
-25.49
12.89
45.83
71.50
89.45
99.88
103.13
99.70
90.59
77.62
63.42
50.84
42.11
38.19
38.53
41.47
44.94
47.33
47.99
47.14
45.42
43.24
40.30
35.62
27.95
16.54
1.61
-15.53
-32.89
-48.59
-61.55
-71.86
-80.69
-89.76
-100.93
-115.47
-133.72
-154.52
-175.01
-190.86
-197.19
-189.96
-167.40
-130.84
-84.48
-34.21
14.14
56.17
89.48
113.43
128.33
134.75
133.32
125.10
111.90
96.49
82.09
71.63
66.81
67.58
72.29
78.43
83.52
85.99
85.37
82.07
76.77
69.90
61.35
50.61
37.24
21.20
3.25
-15.33
-33.10
-49.04
-62.81
-74.88
-86.10
-97.49
-110.04
-124.64
-142.00
-162.18
-184.04
-204.74
-220.03
-225.31
-217.11
-194.22
-157.98
-111.70
-59.55
-5.72
46.02
92.28
130.02
156.90
171.86
175.60
170.62
160.53
149.10
139.36
133.08
130.82
132.10
135.85
140.71
145.34
148.52
149.32
147.07
141.35
132.09
119.58
104.54
87.96
70.88
54.16
38.17
22.87
7.95
-6.96
-21.93
-36.75
-51.03
-64.42
-76.87
-88.61
-100.16
-112.21
-125.65
-141.50
-160.68
-183.26
-207.73
-230.64
-247.03
-251.87
-241.74
-215.96
-176.57
-127.32
-72.31
-15.22
40.73
92.28
135.97
168.60
188.30
195.45
192.77
184.49
174.87
167.02
162.46
161.22
162.56
165.51
169.14
172.59
174.96
175.34
172.93
167.18
158.00
145.85
131.65
116.57
101.66
87.65
74.76
62.83
51.46
40.28
29.16
18.29
8.00
-1.43
-10.05
-18.32
-27.03
-36.98
-48.62
-61.84
-76.01
-90.29
-103.96
-116.70
-128.67
-140.46
-153.04
-167.62
-185.30
-206.32
-229.33
-250.89
-266.01
-269.40
-257.24
-228.38
-184.63
-130.00
-69.58
-8.48
48.71
98.08
136.65
162.66
176.02
178.46
173.07
163.61
153.55
145.46
140.84
140.13
142.88
147.97
153.88
159.07
162.37
163.14
161.22
156.60
149.33
139.47
127.29
113.42
98.83
84.64
71.76
60.59
50.93
42.11
33.34
24.07
14.34
4.63
-4.31
-11.99
-18.59
-24.92
-32.28
-41.79
-53.85
-67.90
-82.56
-96.20
-107.65
-116.65
-123.99
-131.29
-140.53
-153.50
-171.04
-192.42
-214.80
-233.39
-242.37
-236.44
-212.58
-171.26
-116.63
-55.45
4.69
57.33
98.40
126.55
142.57
148.44
146.56
139.29
128.96
117.96
108.60
102.81
101.60
104.67
110.54
117.04
122.24
125.06
125.42
123.91
121.16
117.28
111.84
104.20
94.01
81.70
68.37
55.41
43.94
34.40
26.43
19.16
11.77
3.89
-4.28
-12.11
-18.95
-24.62
-29.53
-34.66
-41.03
-49.35
-59.61
-71.05
-82.55
-93.00
-101.86
-109.35
-116.37
-124.37
-134.87
-148.94
-166.47
-185.55
-202.27
-211.32
-207.49
-187.46
-151.29
-102.79
-48.42
4.65
50.58
86.05
110.31
124.29
129.59
127.78
120.44
109.39
96.92
85.59
77.68
74.51
76.06
81.10
87.63
93.74
98.16
100.46
100.87
99.76
97.19
92.83
86.13
76.86
65.41
52.93
40.93
30.76
23.02
17.38
12.76
7.89
1.87
-5.37
-13.18
-20.43
-26.25
-30.39
-33.49
-36.80
-41.61
-48.66
-57.80
-68.07
-78.15
-86.92
-94.03
-99.92
-105.67
-112.71
-122.35
-135.43
-151.66
-169.20
-184.47
-192.74
-189.33
-171.35
-138.85
-95.24
-46.28
1.63
43.26
75.64
98.02
111.19
116.46
115.13
108.50
98.09
85.95
74.45
65.76
61.25
61.13
64.45
69.59
74.95
79.35
82.30
83.76
83.80
82.35
79.09
73.73
66.19
56.86
46.52
36.10
26.34
17.57
9.73
2.44
-4.55
-11.28
-17.46
-22.69
-26.70
-29.66
-32.19
-35.15
-39.32
-45.03
-52.00
-59.53
-66.83
-73.35
-79.12
-84.67
-90.90
-98.82
-109.22
-122.26
-137.01
-151.16
-161.12
-162.85
-153.08
-130.63
-97.12
-56.65
-14.62
23.88
55.32
78.21
92.63
99.53
99.94
94.92
85.68
73.86
61.58
51.03
43.93
41.02
41.91
45.35
49.77
53.82
56.71
58.26
58.63
58.00
56.38
53.52
49.11
42.92
35.02
25.85
16.16
6.79
-1.52
-8.33
-13.67
-17.99
-21.99
-26.43
-31.77
-38.01
-44.69
-51.06
-56.51
-60.77
-64.10
-67.12
-70.67
-75.56
-82.48
-91.88
-103.59
-116.50
-128.32
-135.77
-135.44
-124.94
-103.90
-74.33
-40.09
-5.66
25.09
49.76
67.45
78.35
83.06
82.25
76.70
67.51
56.34
45.17
35.90
29.84
27.35
27.85
30.23
33.30
36.28
38.83
40.92
42.50
43.22
42.42
39.43
33.83
25.87
16.39
6.63
-2.25
-9.63
-15.69
-21.21
-27.17
-34.24
-42.40
-51.01
-59.12
-65.94
-71.25
-75.43
-79.48
-84.57
-91.86
-102.02
-114.78
-128.58
-140.55
-147.04
-144.65
-131.38
-107.51
-75.62
-39.84
-4.54
26.72
51.86
70.09
81.54
86.65
86.07
80.70
71.83
61.21
50.77
42.20
36.57
34.16
34.50
36.75
39.95
43.36
46.34
48.40
48.99
47.57
43.75
37.48
29.24
19.87
10.28
1.02
-7.86
-16.78
-26.29
-36.64
-47.57
-58.38
-68.24
-76.59
-83.44
-89.33
-95.25
-102.40
-111.96
-124.72
-140.56
-157.93
-173.64
-183.32
-182.55
-168.37
-140.53
-101.77
-57.12
-12.31
27.81
60.21
83.90
99.26
107.33
109.29
106.30
99.67
90.91
81.79
73.93
68.51
66.06
66.35
68.67
72.07
75.61
78.54
80.21
80.12
77.81
72.99
65.61
55.99
44.76
32.69
20.48
8.50
-3.30
-15.15
-27.30
-39.70
-51.91
-63.26
-73.14
-81.43
-88.60
-95.80
-104.59
-116.49
-132.39
-151.72
-172.06
-189.18
-197.86
-193.47
-173.50
-138.68
-92.91
-42.14
7.37
50.74
85.19
109.97
125.65
133.31
134.13
129.48
121.08
111.11
101.87
95.24
92.14
92.29
94.52
97.33
99.56
100.76
101.06
100.79
99.99
98.12
94.25
87.48
77.44
64.65
50.38
36.20
23.45
12.58
3.19
-5.84
-15.69
-27.09
-39.86
-53.08
-65.48
-75.98
-84.28
-90.98
-97.59
-106.03
-118.16
-135.04
-156.10
-178.79
-198.57
-209.87
-207.60
-188.81
-153.91
-106.67
-53.19
-0.10
47.14
85.27
113.16
131.17
140.37
141.91
137.14
127.76
116.06
104.71
96.18
92.10
92.74
97.02
102.97
108.55
112.32
113.75
113.15
111.15
108.14
104.01
98.11
89.73
78.57
65.04
50.31
35.96
23.36
13.23
5.28
-1.56
-8.76
-17.45
-28.03
-40.01
-52.22
-63.40
-72.70
-80.05
-86.25
-92.64
-100.85
-112.32
-127.94
-147.42
-168.81
-188.36
-200.95
-201.39
-186.06
-154.40
-109.44
-56.97
-3.88
43.84
82.41
110.45
128.33
137.19
138.23
132.70
122.18
108.93
95.82
85.68
80.48
80.77
85.53
92.63
99.71
104.99
107.68
107.97
106.53
103.98
100.45
95.50
88.50
79.00
67.13
53.68
39.90
27.12
16.17
7.20
-0.41
-7.69
-15.63
-24.81
-35.11
-45.85
-56.14
-65.23
-72.89
-79.49
-85.89
-93.21
-102.65
-115.17
-131.19
-149.97
-169.26
-185.12
-192.69
-187.46
-166.93
-131.76
-85.83
-35.18
13.78
56.02
88.73
111.28
124.37
129.22
127.03
119.14
107.35
94.06
82.03
73.71
70.53
72.44
78.02
85.05
91.34
95.41
96.85
96.10
93.92
90.93
87.17
82.12
75.04
65.52
53.76
40.72
27.82
16.39
7.20
0.12
-5.80
-11.87
-19.17
-28.12
-38.27
-48.60
-58.02
-65.84
-72.09
-77.50
-83.24
-90.57
-100.57
-113.95
-130.57
-149.10
-166.71
-179.22
-182.05
-171.58
-146.67
-109.28
-64.11
-17.22
25.80
61.15
87.24
104.22
113.06
114.90
110.81
102.08
90.60
78.71
68.89
63.02
61.84
64.76
70.19
76.15
81.03
84.02
85.09
84.73
83.40
81.19
77.67
72.21
64.32
54.05
42.15
29.81
18.32
8.55
0.65
-5.97
-12.35
-19.48
-27.86
-37.26
-46.92
-55.81
-63.25
-69.13
-74.09
-79.17
-85.66
-94.65
-106.87
-122.20
-139.38
-155.69
-167.18
-169.55
-159.49
-135.99
-101.01
-58.95
-15.43
24.49
57.38
81.81
97.83
106.13
107.51
102.90
93.65
81.80
69.91
60.47
55.16
54.29
56.92
61.33
65.81
69.33
71.64
73.00
73.71
73.66
72.27
68.74
62.52
53.67
42.94
31.57
20.84
11.57
3.91
-2.66
-9.05
-16.14
-24.41
-33.71
-43.34
-52.37
-60.03
-65.98
-70.55
-74.68
-79.71
-87.08
-97.89
-112.40
-129.47
-146.34
-158.94
-162.87
-154.79
-133.63
-101.15
-61.49
-19.84
18.97
51.59
76.41
93.20
102.35
104.52
100.58
91.83
80.22
68.13
57.93
51.29
48.78
49.82
53.04
56.93
60.40
62.95
64.62
65.56
65.68
64.48
61.23
55.37
46.91
36.57
25.59
15.28
6.42
-0.95
-7.57
-14.47
-22.42
-31.52
-41.15
-50.30
-58.05
-64.04
-68.61
-72.73
-77.71
-84.86
-95.11
-108.69
-124.70
-140.81
-153.45
-158.46
-152.34
-133.55
-103.28
-65.26
-24.65
13.56
45.77
70.25
86.85
96.19
99.07
96.28
88.85
78.35
66.93
56.87
50.00
47.14
47.93
51.14
55.27
59.12
62.10
64.16
65.42
65.76
64.68
61.46
55.57
47.03
36.65
25.70
15.44
6.55
-1.10
-8.34
-16.15
-25.11
-35.02
-45.07
-54.23
-61.75
-67.58
-72.35
-77.18
-83.35
-91.99
-103.77
-118.42
-134.36
-148.52
-156.77
-155.09
-140.92
-114.34
-78.22
-37.51
2.40
37.17
64.38
83.47
95.02
99.94
99.10
93.34
83.84
72.38
61.14
52.21
47.01
45.88
48.16
52.52
57.55
62.14
65.59
67.58
67.81
65.99
61.84
55.31
46.75
36.88
26.64
16.76
7.55
-1.15
-9.82
-18.93
-28.59
-38.51
-48.05
-56.55
-63.67
-69.53
-74.77
-80.45
-87.82
-97.92
-111.21
-126.92
-142.71
-154.78
-158.75
-150.99
-130.03
-97.37
-57.08
-14.71
24.44
56.63
80.17
95.07
102.30
103.03
98.37
89.63
78.44
66.87
57.04
50.58
48.19
49.50
53.35
58.21
62.80
66.23
68.11
68.27
66.57
62.90
57.19
49.60
40.57
30.80
20.86
11.13
1.58
-8.03
-17.96
-28.24
-38.50
-48.23
-56.86
-64.15
-70.37
-76.24
-82.89
-91.58
-103.26
-118.01
-134.41
-149.37
-158.51
-157.45
-143.28
-115.88
-78.17
-35.34
6.85
43.69
72.47
92.46
104.23
108.80
107.15
100.31
89.74
77.42
65.72
56.79
51.95
51.34
54.06
58.60
63.47
67.58
70.35
71.55
70.96
68.34
63.42
56.12
46.83
36.31
25.52
15.23
5.74
-3.17
-12.04
-21.36
-31.25
-41.35
-51.02
-59.60
-66.74
-72.68
-78.20
-84.49
-92.98
-104.80
-120.25
-138.14
-155.45
-167.71
-170.10
-159.07
-133.72
-96.34
-51.86
-6.26
35.12
68.73
93.10
108.32
115.21
114.90
108.64
98.04
85.18
72.46
62.19
55.98
54.38
56.83
61.91
67.89
73.27
77.04
78.74
78.23
75.45
70.34
62.90
53.36
42.34
30.61
19.02
8.02
-2.34
-12.41
-22.63
-33.24
-44.07
-54.60
-64.21
-72.45
-79.32
-85.41
-91.94
-100.44
-112.29
-127.87
-145.79
-162.59
-173.29
-172.80
-157.75
-127.91
-86.56
-39.48
6.90
47.37
78.97
100.97
114.08
119.44
118.13
111.25
100.26
87.18
74.45
64.37
58.54
57.45
60.45
66.05
72.47
78.08
81.69
82.70
80.90
76.45
69.68
61.07
51.15
40.45
29.39
18.23
7.02
-4.31
-15.82
-27.43
-38.83
-49.54
-59.09
-67.21
-74.06
-80.21
-86.80
-95.22
-106.80
-122.06
-139.92
-157.27
-169.35
-170.97
-158.37
-130.79
-90.96
-44.43
2.32
43.70
76.40
99.39
113.24
119.13
118.23
111.68
100.94
87.98
75.24
65.01
58.89
57.39
59.92
65.01
70.95
76.18
79.61
80.65
79.12
75.10
68.75
60.41
50.50
39.60
28.24
16.82
5.51
-5.76
-17.15
-28.63
-39.89
-50.42
-59.74
-67.63
-74.36
-80.69
-87.79
-96.99
-109.45
-125.52
-144.11
-162.20
-175.17
-177.86
-166.38
-139.66
-100.22
-53.45
-5.93
36.55
70.38
94.39
109.06
115.58
115.17
108.96
98.36
85.38
72.47
62.05
55.81
54.36
57.07
62.49
68.78
74.26
77.75
78.65
76.81
72.42
65.85
57.52
47.86
37.28
26.11
14.58
2.85
-9.00
-20.84
-32.46
-43.58
-53.85
-62.98
-70.84
-77.65
-84.00
-91.00
-100.07
-112.52
-128.75
-147.36
-164.82
-176.01
-175.63
-160.26
-129.67
-87.27
-38.97
8.70
50.40
83.09
105.87
119.29
124.44
122.48
114.78
103.09
89.74
77.29
68.00
63.19
62.97
66.27
71.41
76.71
80.90
83.39
83.91
82.35
78.40
71.74
62.23
50.33
37.05
23.72
11.46
0.60
-9.28
-19.18
-29.95
-41.80
-54.12
-65.83
-75.91
-84.02
-90.68
-97.11
-104.97
-115.83
-130.76
-149.60
-170.45
-189.45
-201.27
-200.52
-183.59
-150.12
-103.48
-49.82
3.78
51.35
89.20
116.10
132.53
139.72
139.06
132.04
120.60
107.19
94.58
85.22
80.53
80.54
84.00
89.04
93.85
97.31
99.00
98.91
97.01
92.99
86.37
76.88
64.83
51.13
36.99
23.46
10.99
-0.65
-12.13
-23.98
-36.32
-48.63
-60.09
-69.97
-78.02
-84.71
-91.11
-98.69
-108.96
-123.19
-141.54
-162.55
-182.63
-196.54
-198.60
-184.64
-153.78
-108.96
-56.25
-2.81
45.15
83.82
111.93
129.87
138.70
139.43
133.23
121.79
107.62
93.74
82.89
76.79
75.60
78.17
82.66
87.33
91.04
93.28
93.91
92.73
89.38
83.33
74.29
62.48
48.76
34.41
20.69
8.44
-2.32
-12.22
-22.24
-33.09
-44.83
-56.79
-67.94
-77.35
-84.74
-90.67
-96.49
-103.98
-114.85
-130.13
-149.40
-170.26
-188.29
-197.93
-194.02
-173.65
-137.41
-89.43
-36.13
15.71
60.71
95.86
120.32
134.61
139.81
137.11
128.04
114.71
99.86
86.50
77.12
72.98
73.84
78.09
83.59
88.44
91.55
92.75
92.26
90.25
86.43
80.18
70.95
58.77
44.52
29.67
15.78
3.85
-6.01
-14.63
-23.20
-32.73
-43.50
-54.94
-65.98
-75.49
-82.92
-88.60
-93.65
-99.75
-108.68
-121.87
-139.67
-160.79
-181.87
-197.84
-203.01
-192.94
-166.01
-124.36
-73.30
-19.67
30.13
71.65
102.79
123.29
133.85
135.57
129.80
118.46
104.22
90.13
79.06
72.81
71.74
74.83
80.16
85.72
90.09
92.67
93.48
92.77
90.58
86.50
79.91
70.41
58.18
44.20
29.95
16.88
5.82
-3.33
-11.49
-19.87
-29.35
-40.05
-51.33
-62.10
-71.43
-78.96
-85.07
-90.88
-97.90
-107.82
-121.89
-140.26
-161.27
-181.14
-194.51
-195.79
-181.14
-150.00
-105.52
-53.66
-1.38
45.44
83.09
110.20
126.96
134.30
133.37
125.63
113.13
98.61
85.05
75.03
69.94
69.70
73.03
78.04
83.03
86.96
89.42
90.38
89.75
87.08
81.77
73.33
61.83
48.09
33.51
19.60
7.40
-2.84
-11.72
-20.23
-29.29
-39.20
-49.59
-59.59
-68.35
-75.50
-81.31
-86.74
-93.18
-102.12
-114.70
-131.03
-149.60
-167.01
-178.39
-178.67
-164.28
-134.60
-92.47
-43.40
6.08
50.29
85.55
110.36
124.81
129.78
126.50
116.57
102.21
86.18
71.47
60.51
54.69
54.01
57.29
62.75
68.58
73.38
76.34
77.08
75.48
71.48
65.06
56.38
45.85
34.19
22.26
10.79
0.12
-9.93
-19.85
-30.12
-40.84
-51.56
-61.53
-70.05
-76.91
-82.57
-88.15
-95.17
-105.24
-119.38
-137.43
-157.34
-175.11
-185.38
-183.01
-164.84
-131.11
-85.67
-34.85
14.46
56.78
89.04
110.57
122.20
125.32
121.32
111.57
97.78
82.21
67.46
56.01
49.55
48.53
52.03
58.22
64.85
70.00
72.41
71.61
67.79
61.47
53.33
43.94
33.70
22.83
11.35
-0.77
-13.50
-26.60
-39.58
-51.79
-62.71
-72.06
-80.01
-87.14
-94.37
-102.85
-113.89
-128.50
-146.69
-166.67
-184.58
-194.99
-192.49
-173.67
-138.62
-91.28
-38.21
13.40
57.85
92.00
115.27
128.61
133.50
131.33
123.38
111.25
97.08
83.40
72.63
66.45
65.34
68.45
73.99
79.84
84.14
85.73
84.15
79.51
72.24
62.83
51.83
39.74
27.00
13.94
0.69
-12.73
-26.34
-39.97
-53.24
-65.62
-76.56
-85.87
-93.83
-101.34
-109.77
-120.81
-135.84
-155.25
-177.60
-199.28
-214.95
-218.79
-206.32
-176.10
-130.42
-74.82
-16.45
37.83
83.08
116.87
139.00
150.65
153.54
149.51
140.49
128.67
116.50
106.34
99.92
97.89
99.54
103.23
107.04
109.54
110.13
108.98
106.54
102.99
97.95
90.61
80.22
66.59
50.44
33.26
16.80
2.54
-8.97
-18.22
-26.49
-35.26
-45.53
-57.47
-70.39
-83.15
-94.72
-104.63
-113.14
-121.34
-130.91
-143.67
-160.99
-182.79
-206.87
-228.78
-242.63
-242.75
-225.42
-190.18
-140.02
-80.57
-18.60
39.52
88.91
126.70
151.95
165.35
168.72
164.49
155.32
143.82
132.39
123.07
117.38
115.93
118.29
123.03
128.16
131.83
132.87
130.98
126.50
120.07
112.19
103.07
92.72
81.09
68.30
54.68
40.75
27.13
14.41
3.03
-6.78
-15.18
-22.66
-29.99
-38.05
-47.44
-58.31
-70.24
-82.45
-94.11
-104.72
-114.35
-123.65
-133.77
-146.12
-162.02
-182.00
-205.07
-228.16
-246.35
-253.95
-246.08
-220.39
-177.85
-122.56
-60.70
1.08
56.95
102.82
136.52
157.66
167.33
167.62
161.27
151.17
140.07
130.18
123.11
119.65
119.73
122.53
126.74
130.93
133.92
134.97
133.72
130.13
124.30
116.40
106.71
95.66
83.71
71.37
59.02
46.92
35.20
23.94
13.21
3.15
-6.10
-14.43
-21.97
-29.07
-36.34
-44.40
-53.69
-64.30
-75.83
-87.61
-98.90
-109.17
-118.32
-126.84
-135.87
-146.89
-161.40
-180.00
-201.58
-222.87
-238.67
-243.08
-231.31
-201.35
-154.89
-97.01
-34.86
24.32
74.79
113.35
139.28
153.64
158.43
155.84
147.96
136.84
124.65
113.57
105.53
101.75
102.30
106.11
111.39
116.24
119.29
119.86
117.97
114.00
108.31
101.14
92.61
82.78
71.76
59.80
47.25
34.60
22.43
11.31
1.67
-6.35
-13.01
-18.92
-24.98
-31.98
-40.39
-50.10
-60.53
-70.80
-80.14
-88.24
-95.38
-102.42
-110.60
-121.20
-135.27
-153.08
-173.53
-193.76
-209.18
-214.33
-204.53
-177.58
-134.94
-81.58
-24.59
28.90
73.63
107.03
129.01
140.83
144.12
140.40
131.11
118.05
103.59
90.40
80.80
76.16
76.41
80.30
85.91
91.31
95.26
97.26
97.40
95.96
93.08
88.62
82.27
73.76
63.15
50.87
37.70
24.62
12.54
2.15
-6.33
-13.20
-19.19
-25.27
-32.26
-40.54
-49.87
-59.52
-68.53
-76.22
-82.43
-87.63
-92.80
-99.18
-108.01
-120.19
-135.94
-154.23
-172.45
-186.45
-191.35
-182.94
-159.26
-121.54
-74.09
-23.10
25.16
65.94
96.74
117.13
127.87
130.23
125.52
115.27
101.44
86.51
73.13
63.53
58.86
58.88
62.22
66.93
71.26
74.24
75.66
75.92
75.45
74.33
72.11
68.04
61.42
52.03
40.37
27.56
15.02
3.97
-4.99
-12.07
-18.19
-24.49
-31.89
-40.63
-50.21
-59.68
-67.99
-74.54
-79.37
-83.18
-87.07
-92.34
-100.18
-111.34
-125.78
-142.11
-157.44
-167.65
-168.39
-156.46
-131.12
-94.56
-51.33
-7.01
33.39
66.52
90.86
106.37
113.63
113.51
107.11
95.96
82.17
68.27
56.62
48.86
45.41
45.60
47.99
51.12
54.02
56.36
58.28
59.84
60.72
60.12
57.16
51.26
42.62
32.14
21.17
10.90
1.97
-5.81
-13.19
-21.07
-30.02
-39.96
-50.16
-59.57
-67.35
-73.19
-77.54
-81.45
-86.24
-93.13
-102.87
-115.32
-129.25
-142.18
-150.63
-150.91
-140.20
-117.67
-85.02
-46.14
-5.99
30.78
60.95
83.09
97.16
103.88
104.09
98.74
88.92
76.28
62.85
50.78
41.83
36.85
35.73
37.56
41.08
45.03
48.47
50.76
51.54
50.64
47.96
43.55
37.52
30.06
21.37
11.74
1.43
-9.28
-20.05
-30.59
-40.60
-49.87
-58.23
-65.66
-72.31
-78.62
-85.29
-93.25
-103.29
-115.55
-128.93
-140.95
-148.02
-146.45
-133.80
-109.84
-76.89
-39.17
-1.50
32.07
59.05
78.59
90.86
96.46
95.96
90.05
79.81
66.92
53.61
42.11
34.11
30.29
30.22
32.67
36.13
39.33
41.50
42.41
42.15
40.86
38.56
35.07
30.08
23.30
14.65
4.24
-7.40
-19.56
-31.38
-42.19
-51.59
-59.67
-66.90
-74.06
-82.09
-91.89
-104.03
-118.26
-133.10
-145.69
-152.23
-149.07
-134.01
-107.25
-71.66
-31.88
7.03
41.02
67.76
86.58
97.76
101.87
99.45
91.23
78.53
63.58
49.17
37.99
31.84
30.98
34.21
39.40
44.38
47.62
48.68
47.95
46.18
43.90
41.04
36.95
30.79
21.95
10.47
-2.86
-16.79
-30.01
-41.62
-51.44
-59.96
-68.12
-77.06
-87.75
-100.84
-116.25
-132.83
-148.13
-158.52
-160.00
-149.50
-126.05
-91.48
-49.97
-6.94
32.61
65.22
89.32
104.72
111.96
111.68
104.69
92.31
76.70
60.73
47.42
39.03
36.40
38.74
44.05
49.94
54.53
56.93
57.31
56.37
54.70
52.29
48.44
42.06
32.36
19.28
3.80
-12.43
-27.61
-40.47
-50.63
-58.67
-65.83
-73.64
-83.52
-96.54
-112.84
-131.36
-149.42
-162.88
-167.07
-158.20
-134.79
-98.54
-53.95
-7.06
36.42
72.44
99.18
116.53
125.20
126.04
119.89
107.99
92.45
76.22
62.58
54.13
51.96
55.28
61.87
68.92
74.10
76.22
75.32
72.29
68.15
63.46
58.04
51.07
41.61
29.09
13.85
-2.95
-19.56
-34.36
-46.39
-55.72
-63.36
-70.79
-79.58
-90.98
-105.65
-123.30
-142.27
-159.33
-170.02
-169.71
-155.12
-125.81
-84.65
-37.16
10.24
51.99
84.70
107.22
119.98
124.04
120.48
110.62
96.33
80.33
65.89
56.02
52.50
55.24
62.38
71.04
78.41
82.67
83.46
81.56
78.14
73.97
68.98
62.30
52.90
40.19
24.57
7.38
-9.49
-24.37
-36.38
-45.68
-53.31
-60.76
-69.59
-81.04
-95.80
-113.62
-132.86
-150.39
-161.86
-162.82
-150.15
-123.37
-85.14
-40.46
4.79
45.51
78.40
102.07
116.39
121.84
119.14
109.50
94.97
78.56
63.70
53.34
49.03
50.43
55.62
61.90
66.92
69.47
69.50
67.77
64.94
61.01
55.22
46.44
33.98
18.11
0.25
-17.55
-33.34
-46.04
-55.77
-63.73
-71.71
-81.59
-94.79
-111.74
-131.48
-151.26
-166.82
-173.18
-166.22
-144.20
-108.64
-64.01
-16.40
28.31
65.94
94.40
113.30
123.08
124.47
118.47
106.71
91.75
76.75
64.82
57.98
56.58
59.34
63.93
68.02
70.09
69.76
67.48
63.93
59.31
53.07
44.19
31.77
15.76
-2.78
-21.95
-39.69
-54.56
-66.29
-75.82
-84.94
-95.76
-110.02
-128.47
-150.20
-172.20
-189.72
-197.21
-190.00
-166.00
-126.71
-76.98
-23.54
26.94
69.60
101.98
123.71
135.58
138.65
134.11
123.50
109.12
94.10
81.75
74.62
73.57
77.47
83.68
89.12
91.48
89.89
84.93
77.96
70.15
61.87
52.52
41.03
26.51
8.97
-10.56
-30.30
-48.30
-63.25
-74.91
-84.21
-92.88
-103.04
-116.64
-134.79
-157.22
-181.70
-204.14
-219.23
-221.71
-208.04
-177.49
-132.60
-78.52
-21.65
31.94
77.72
113.20
137.77
152.20
157.98
157.01
151.38
143.34
135.13
128.66
125.15
124.81
126.84
129.73
131.97
132.47
130.81
127.05
121.37
113.73
103.89
91.59
76.94
60.60
43.70
27.50
12.98
0.43
-10.64
-21.25
-32.49
-45.05
-58.90
-73.39
-87.57
-100.62
-112.26
-122.96
-134.01
-147.24
-164.43
-186.39
-211.86
-237.18
-256.73
-264.50
-255.95
-229.55
-187.08
-133.01
-73.09
-13.03
42.44
89.94
127.46
154.25
170.66
178.08
178.60
174.69
168.78
162.98
158.82
157.08
157.67
159.69
161.85
162.93
162.22
159.65
155.48
149.91
142.88
134.09
123.30
110.65
96.79
82.76
69.68
58.39
49.17
41.70
35.21
28.77
21.56
13.19
3.78
-6.13
-15.87
-24.93
-33.34
-41.68
-50.91
-61.92
-75.06
-89.93
-105.47
-120.38
-133.59
-144.74
-154.26
-163.31
-173.57
-186.81
-204.26
-225.74
-249.02
-269.66
-281.95
-280.43
-261.67
-225.38
-174.61
-114.77
-52.19
7.31
59.35
101.35
132.42
152.96
164.30
168.30
167.11
162.84
157.49
152.72
149.73
149.01
150.21
152.31
154.01
154.29
152.77
149.64
145.32
140.07
133.73
125.80
115.88
103.92
90.54
76.89
64.25
53.58
45.11
38.26
31.96
25.05
16.89
7.56
-2.22
-11.52
-19.71
-26.80
-33.54
-41.09
-50.43
-61.94
-75.10
-88.74
-101.51
-112.42
-121.28
-128.74
-136.19
-145.37
-157.92
-174.74
-195.33
-217.19
-235.81
-245.41
-240.52
-217.85
-177.72
-124.28
-64.49
-5.92
45.21
85.37
113.86
131.88
141.41
144.33
142.22
136.59
129.14
121.80
116.35
113.96
114.75
117.81
121.58
124.55
125.75
124.94
122.45
118.70
113.77
107.32
98.88
88.24
75.87
62.89
50.70
40.42
32.33
25.86
19.85
13.21
5.47
-3.07
-11.48
-18.84
-24.77
-29.69
-34.70
-41.02
-49.43
-59.82
-71.32
-82.64
-92.68
-100.98
-107.92
-114.59
-122.51
-133.16
-147.53
-165.44
-184.93
-202.11
-211.69
-208.36
-188.62
-152.34
-103.21
-47.80
6.44
53.34
89.31
113.60
127.41
132.66
131.20
124.63
114.54
102.81
91.61
82.90
77.98
77.01
79.11
82.76
86.44
89.09
90.25
89.97
88.40
85.50
81.03
74.64
66.22
56.11
45.10
34.16
24.14
15.38
7.77
0.90
-5.63
-11.93
-17.82
-23.10
-27.76
-32.16
-36.95
-42.76
-49.92
-58.23
-67.03
-75.56
-83.25
-90.02
-96.35
-103.18
-111.70
-123.04
-137.78
-155.37
-173.50
-188.18
-194.44
-187.76
-165.81
-129.60
-83.39
-33.57
13.33
52.43
81.37
100.08
109.82
112.15
108.51
100.18
88.75
76.29
65.16
57.48
54.44
55.99
60.86
67.08
72.69
76.34
77.54
76.55
73.99
70.39
65.90
60.24
52.99
43.88
33.06
21.25
9.49
-1.09
-9.70
-16.15
-20.91
-24.97
-29.39
-34.99
-41.97
-49.90
-57.91
-65.11
-71.01
-75.75
-80.12
-85.24
-92.33
-102.33
-115.66
-131.85
-149.12
-164.28
-173.11
-171.42
-156.42
-127.94
-88.81
-44.10
0.37
39.70
70.91
92.98
106.25
111.59
109.97
102.57
91.03
77.63
64.96
55.34
50.13
49.46
52.29
56.90
61.63
65.35
67.62
68.54
68.31
66.89
63.86
58.60
50.64
40.06
27.71
14.87
3.04
-6.77
-14.36
-20.37
-25.99
-32.45
-40.44
-49.82
-59.71
-68.88
-76.33
-81.73
-85.66
-89.41
-94.63
-102.87
-115.02
-130.87
-148.74
-165.36
-176.39
-177.34
-165.03
-138.78
-100.87
-56.10
-10.33
31.14
64.76
89.11
104.35
111.46
111.59
105.91
95.86
83.39
70.89
60.67
54.38
52.53
54.38
58.43
62.96
66.72
69.15
70.34
70.54
69.78
67.61
63.29
56.17
46.16
34.02
21.15
9.11
-1.08
-9.32
-16.44
-23.69
-32.06
-41.79
-52.24
-62.31
-70.92
-77.59
-82.66
-87.16
-92.61
-100.58
-112.24
-127.86
-146.24
-164.44
-178.09
-182.34
-173.33
-149.65
-113.05
-68.10
-20.81
23.07
59.47
86.47
103.96
112.88
114.41
109.81
100.56
88.57
76.16
65.68
58.82
56.20
57.35
61.00
65.70
70.27
74.04
76.67
77.92
77.37
74.53
68.95
60.54
49.77
37.59
25.17
13.48
2.94
-6.69
-16.10
-25.93
-36.40
-47.11
-57.18
-65.73
-72.37
-77.47
-82.11
-87.86
-96.31
-108.57
-124.61
-142.79
-159.68
-170.59
-170.72
-156.76
-128.30
-88.12
-41.62
4.93
46.13
78.67
101.46
115.02
120.56
119.39
112.83
102.47
90.31
78.60
69.35
63.81
62.24
63.96
67.79
72.44
76.81
80.09
81.65
80.98
77.80
72.06
64.06
54.40
43.83
33.01
22.37
11.98
1.62
-8.98
-19.96
-31.14
-42.08
-52.19
-61.04
-68.58
-75.31
-82.25
-90.78
-102.07
-116.58
-133.25
-149.27
-160.40
-162.06
-150.85
-125.92
-89.43
-46.01
-1.40
39.28
72.53
96.89
112.35
119.67
119.81
113.84
103.20
89.87
76.27
64.82
57.31
54.46
55.78
59.88
65.00
69.55
72.39
72.95
71.13
67.12
61.29
54.05
45.76
36.63
26.73
16.06
4.68
-7.20
-19.17
-30.68
-41.20
-50.39
-58.12
-64.64
-70.54
-76.77
-84.50
-94.86
-108.35
-124.18
-139.97
-151.82
-155.34
-147.02
-125.61
-92.76
-52.63
-10.64
28.19
60.38
84.34
99.94
107.73
108.38
102.70
91.91
78.00
63.64
51.61
44.03
41.77
44.23
49.60
55.66
60.41
62.67
62.19
59.44
55.16
49.91
43.81
36.56
27.67
16.88
4.39
-9.05
-22.33
-34.42
-44.62
-52.91
-59.78
-66.16
-73.12
-81.78
-92.94
-106.79
-122.39
-137.36
-148.04
-150.37
-141.11
-119.23
-86.48
-46.95
-5.83
32.10
63.55
86.89
101.83
108.64
107.85
100.39
87.88
72.79
58.12
46.63
40.06
38.60
40.94
45.00
48.72
50.81
50.98
49.67
47.47
44.57
40.51
34.37
25.34
13.21
-1.35
-16.90
-31.73
-44.43
-54.49
-62.27
-68.99
-76.20
-85.49
-97.96
-113.82
-131.89
-149.36
-162.06
-165.35
-155.68
-131.86
-95.89
-52.43
-7.35
33.99
68.04
93.35
109.99
118.54
119.67
114.01
102.81
88.19
73.09
60.56
52.89
50.76
53.22
58.08
62.81
65.47
65.22
62.31
57.63
52.03
45.76
38.35
28.87
16.54
1.28
-15.96
-33.48
-49.38
-62.35
-72.12
-79.54
-86.28
-94.33
-105.43
-120.68
-139.97
-161.51
-181.62
-195.23
-197.02
-183.23
-153.13
-109.67
-58.76
-7.37
38.52
75.31
101.96
119.24
128.53
131.03
127.70
119.73
108.89
97.61
88.36
82.98
82.05
84.81
89.52
94.16
97.07
97.28
94.54
89.07
81.33
71.77
60.78
48.64
35.53
21.58
6.94
-8.15
-23.29
-38.02
-51.91
-64.67
-76.25
-86.77
-96.54
-106.08
-116.32
-128.56
-144.15
-163.75
-186.26
-208.33
-224.79
-229.89
-219.24
-191.32
-148.07
-94.35
-36.49
19.24
67.95
106.66
134.25
151.07
158.44
158.29
152.85
144.51
135.61
128.25
123.96
123.41
126.20
130.96
135.80
138.98
139.41
136.90
131.92
125.27
117.54
108.88
99.06
87.69
74.62
60.16
45.16
30.70
17.72
6.67
-2.71
-11.19
-19.83
-29.50
-40.61
-53.00
-66.09
-79.19
-91.76
-103.62
-114.98
-126.36
-138.59
-152.77
-169.99
-190.86
-214.61
-238.54
-258.08
-267.81
-263.10
-241.66
-204.29
-154.45
-97.19
-37.85
18.85
69.13
110.25
140.50
159.43
168.02
168.51
163.94
157.36
151.26
147.16
145.66
146.61
149.31
152.84
156.22
158.63
159.51
158.46
155.21
149.55
141.40
130.84
118.36
104.70
90.83
77.59
65.49
54.56
44.41
34.50
24.36
13.92
3.49
-6.44
-15.46
-23.59
-31.24
-39.21
-48.26
-58.91
-71.18
-84.61
-98.41
-111.76
-124.11
-135.35
-146.02
-157.26
-170.61
-187.41
-207.96
-230.61
-251.55
-265.43
-266.84
-252.09
-220.42
-174.17
-118.12
-58.04
0.54
53.13
96.62
129.24
150.50
161.19
163.13
158.96
151.62
143.74
137.39
133.78
133.30
135.54
139.49
143.91
147.65
149.83
150.03
148.06
143.84
137.34
128.57
117.77
105.46
92.45
79.62
67.65
56.84
47.03
37.73
28.36
18.63
8.65
-1.06
-9.92
-17.64
-24.45
-31.14
-38.71
-47.99
-59.19
-71.78
-84.75
-97.00
-107.85
-117.32
-126.21
-135.90
-147.98
-163.81
-183.66
-206.03
-227.39
-242.53
-245.86
-232.97
-202.28
-155.68
-98.28
-36.97
21.27
70.97
108.98
134.50
148.44
152.71
149.60
141.43
130.56
119.35
109.95
104.07
102.52
104.98
110.11
116.08
121.15
124.21
124.90
123.30
119.69
114.18
106.72
97.37
86.43
74.57
62.55
51.03
40.31
30.31
20.78
11.57
2.79
-5.26
-12.29
-18.34
-23.89
-29.80
-36.91
-45.70
-56.07
-67.34
-78.52
-88.76
-97.68
-105.58
-113.35
-122.28
-133.78
-148.92
-167.78
-188.81
-208.42
-221.41
-222.10
-206.28
-172.82
-124.56
-67.64
-9.68
42.42
84.18
114.00
132.53
141.46
142.54
137.25
127.10
114.04
100.50
89.09
81.82
79.56
81.77
86.85
92.84
98.03
101.40
102.58
101.62
98.73
94.03
87.56
79.42
69.78
58.94
47.36
35.53
23.93
13.07
3.32
-5.06
-12.10
-18.11
-23.76
-29.77
-36.77
-44.97
-54.08
-63.46
-72.36
-80.27
-87.12
-93.35
-99.77
-107.45
-117.50
-130.89
-147.85
-167.26
-186.17
-199.92
-203.13
-191.44
-163.25
-120.60
-68.82
-14.91
34.56
75.05
104.65
123.60
133.17
134.77
129.67
119.22
105.32
90.47
77.41
68.35
64.33
64.90
68.46
73.00
76.85
79.17
79.97
79.77
79.01
77.66
75.19
70.75
63.61
53.60
41.33
28.06
15.30
4.34
-4.30
-10.94
-16.57
-22.38
-29.29
-37.61
-46.94
-56.48
-65.37
-73.01
-79.29
-84.61
-89.76
-95.84
-104.06
-115.52
-130.73
-148.90
-167.55
-182.48
-188.65
-181.75
-159.75
-123.86
-78.30
-29.07
17.83
57.90
88.72
109.67
121.20
124.28
120.11
110.28
96.98
82.78
70.29
61.50
57.31
57.35
60.28
64.36
68.08
70.59
71.78
72.02
71.69
70.72
68.50
64.09
56.71
46.30
33.68
20.39
8.14
-1.91
-9.61
-15.83
-22.01
-29.50
-38.88
-49.69
-60.71
-70.50
-78.10
-83.42
-87.31
-91.28
-96.99
-105.88
-118.72
-135.06
-152.93
-168.70
-177.72
-175.49
-159.19
-128.88
-87.66
-40.85
5.63
46.86
79.82
103.43
117.88
123.88
122.39
114.63
102.38
87.99
74.10
62.96
55.95
53.23
53.98
56.84
60.47
63.95
66.81
68.81
69.63
68.81
65.74
60.01
51.70
41.46
30.35
19.42
9.38
0.32
-8.25
-17.07
-26.69
-37.16
-47.96
-58.21
-67.11
-74.29
-80.04
-85.28
-91.39
-99.74
-111.29
-125.90
-141.94
-156.19
-164.30
-162.08
-146.82
-118.55
-80.20
-36.92
5.58
42.56
71.28
91.01
102.33
106.36
104.09
96.50
84.88
71.11
57.53
46.53
39.84
38.04
40.48
45.54
51.25
55.93
58.55
58.89
57.26
54.19
50.05
44.90
38.42
30.20
20.00
7.98
-5.21
-18.61
-31.18
-42.21
-51.43
-59.11
-65.93
-72.77
-80.58
-90.24
-102.31
-116.61
-131.79
-145.13
-152.87
-151.23
-137.63
-111.93
-76.62
-36.17
4.29
40.36
69.25
89.76
101.85
105.98
102.90
93.78
80.42
65.32
51.27
40.65
34.74
33.45
35.44
38.83
41.94
43.77
44.21
43.62
42.37
40.36
36.86
30.89
21.62
8.95
-6.18
-22.12
-37.02
-49.58
-59.49
-67.53
-75.21
-84.18
-95.83
-110.74
-128.35
-146.65
-162.20
-170.66
-167.90
-151.38
-121.26
-80.61
-34.61
10.97
51.27
83.17
105.38
117.82
121.06
116.09
104.51
88.64
71.46
56.03
44.66
38.35
36.61
37.95
40.49
42.82
44.28
44.84
44.61
43.36
40.30
34.31
24.50
10.79
-5.85
-23.60
-40.43
-54.94
-66.77
-76.75
-86.59
-98.30
-113.45
-132.49
-154.03
-174.76
-189.79
-193.79
-182.71
-155.19
-113.32
-62.23
-8.60
41.22
82.60
113.27
132.84
142.06
142.13
134.52
121.17
104.68
88.15
74.53
65.90
62.79
64.16
67.93
71.80
74.09
74.06
71.83
67.80
62.18
54.71
44.73
31.67
15.42
-3.31
-23.21
-42.67
-60.29
-75.38
-88.06
-99.30
-110.64
-123.97
-140.80
-161.54
-184.69
-206.63
-222.20
-226.18
-214.97
-187.69
-146.42
-95.35
-39.63
15.72
66.43
109.11
141.38
161.98
171.08
170.24
162.22
150.27
137.50
126.39
118.59
114.87
115.13
118.44
123.24
127.68
130.05
129.13
124.48
116.21
104.98
91.54
76.64
60.85
44.52
27.83
10.92
-5.99
-22.59
-38.46
-53.24
-66.77
-79.16
-90.77
-102.16
-114.14
-127.74
-144.14
-164.10
-187.18
-211.06
-231.46
-243.09
-241.24
-223.39
-189.94
-143.83
-89.44
-31.42
25.95
78.86
123.90
158.23
180.20
189.98
189.72
183.00
173.70
164.97
158.66
155.37
154.82
156.34
159.12
162.25
164.80
165.86
164.59
160.47
153.36
143.53
131.64
118.54
105.06
91.84
79.20
67.17
55.58
44.20
32.92
21.80
11.07
1.02
-8.25
-16.93
-25.60
-35.07
-46.01
-58.69
-72.81
-87.67
-102.41
-116.44
-129.60
-142.15
-154.69
-168.01
-183.11
-200.91
-221.78
-244.75
-267.03
-284.06
-290.70
-282.85
-258.85
-219.92
-169.46
-111.82
-51.16
8.84
64.79
113.33
151.39
176.95
189.87
192.17
187.45
179.71
172.21
166.85
164.20
163.92
165.24
167.36
169.53
171.06
171.32
169.70
165.70
158.90
149.19
136.87
122.68
107.68
93.05
79.75
68.32
58.73
50.42
42.52
34.20
24.93
14.78
4.30
-5.73
-14.76
-22.78
-30.44
-38.80
-48.78
-60.80
-74.48
-88.85
-102.75
-115.29
-126.22
-136.01
-145.80
-157.20
-171.82
-190.62
-213.02
-236.36
-255.89
-265.86
-261.05
-238.55
-198.71
-145.19
-83.87
-21.39
36.29
84.88
122.01
147.11
160.98
165.40
162.76
155.67
146.75
138.32
132.21
129.45
130.16
133.43
137.75
141.56
143.73
143.83
141.96
138.40
133.22
126.19
116.97
105.54
92.39
78.58
65.37
53.81
44.24
36.30
29.06
21.55
13.22
4.15
-5.01
-13.49
-20.86
-27.28
-33.57
-40.74
-49.62
-60.36
-72.37
-84.57
-95.85
-105.59
-113.89
-121.60
-130.12
-141.06
-155.71
-174.39
-195.70
-216.19
-230.58
-232.99
-218.89
-186.78
-139.21
-82.11
-23.11
30.75
74.72
106.90
127.67
138.56
141.30
137.49
128.82
117.39
105.80
96.56
91.50
91.14
94.57
99.92
105.14
108.78
110.31
109.96
108.25
105.45
101.37
95.48
87.38
77.08
65.28
53.14
41.93
32.54
25.13
19.20
13.76
7.88
1.14
-6.22
-13.46
-19.81
-25.04
-29.59
-34.50
-40.89
-49.35
-59.66
-70.86
-81.72
-91.29
-99.35
-106.46
-113.70
-122.42
-133.85
-148.63
-166.40
-185.15
-201.19
-209.56
-205.43
-185.76
-150.72
-103.97
-51.73
-0.81
43.27
77.46
101.16
115.33
121.47
120.94
115.01
105.19
93.54
82.49
74.26
70.26
70.65
74.42
79.87
85.36
89.79
92.70
94.11
94.09
92.51
89.02
83.23
75.13
65.13
54.17
43.34
33.55
25.24
18.27
12.03
5.82
-0.88
-8.04
-15.22
-21.77
-27.21
-31.62
-35.65
-40.30
-46.41
-54.26
-63.42
-72.96
-81.89
-89.51
-95.82
-101.37
-107.21
-114.65
-124.87
-138.46
-154.71
-171.21
-183.86
-187.81
-178.96
-155.50
-118.90
-73.59
-25.66
18.95
55.98
83.43
101.24
110.41
112.21
107.88
98.75
86.56
73.56
62.17
54.41
51.33
52.73
57.33
63.34
69.15
73.58
76.21
77.03
76.16
73.70
69.59
63.83
56.54
48.06
38.80
29.21
19.64
10.38
1.73
-6.02
-12.62
-17.98
-22.33
-26.19
-30.20
-34.94
-40.64
-47.08
-53.75
-60.10
-65.76
-70.75
-75.52
-80.75
-87.36
-96.24
-107.98
-122.47
-138.38
-152.98
-162.42
-162.65
-150.73
-126.04
-90.71
-49.19
-6.93
31.16
61.75
83.46
96.39
101.45
99.78
92.58
81.36
68.05
54.98
44.41
37.95
36.07
38.03
42.30
47.19
51.46
54.57
56.54
57.58
57.70
56.48
53.32
47.72
39.62
29.58
18.64
7.98
-1.41
-9.13
-15.44
-21.04
-26.82
-33.42
-40.91
-48.79
-56.27
-62.59
-67.47
-71.23
-74.75
-79.22
-85.85
-95.51
-108.37
-123.53
-138.72
-150.53
-155.05
-149.03
-131.02
-102.06
-65.57
-26.31
10.96
42.65
66.84
83.08
91.75
93.58
89.49
80.69
68.86
56.14
44.70
36.22
31.55
30.51
32.19
35.47
39.35
43.15
46.43
48.72
49.42
47.89
43.63
36.66
27.55
17.30
6.98
-2.75
-11.80
-20.62
-29.88
-40.00
-50.89
-61.93
-72.22
-80.99
-87.96
-93.53
-98.76
-105.20
-114.41
-127.39
-143.83
-161.67
-177.13
-185.53
-182.56
-165.84
-135.85
-95.91
-51.17
-7.12
31.81
62.99
85.51
99.63
106.09
105.80
99.82
89.61
77.12
64.63
54.30
47.66
45.24
46.53
50.26
54.89
59.01
61.61
62.16
60.46
56.57
50.65
42.92
33.64
23.04
11.36
-1.25
-14.63
-28.57
-42.70
-56.53
-69.51
-81.17
-91.35
-100.36
-109.01
-118.62
-130.67
-146.28
-165.40
-186.24
-205.11
-217.10
-217.43
-202.84
-172.76
-129.60
-78.10
-24.11
26.72
70.09
103.43
125.87
137.85
140.61
135.91
125.83
112.76
99.23
87.71
80.16
77.56
79.58
84.70
90.73
95.55
97.79
97.01
93.55
88.04
80.86
71.95
60.81
46.98
30.44
11.87
-7.44
-25.97
-42.59
-56.92
-69.37
-80.91
-92.59
-105.29
-119.70
-136.41
-155.85
-177.72
-200.42
-220.68
-234.06
-236.29
-224.69
-199.21
-162.18
-117.11
-67.42
-15.80
35.58
84.21
126.82
159.79
180.41
188.14
185.09
175.41
163.72
153.77
147.51
145.29
146.34
149.67
154.51
160.35
166.69
172.71
177.01
177.85
173.55
163.15
146.90
126.32
103.75
81.59
61.47
43.75
27.69
11.99
-4.45
-21.89
-39.75
-56.95
-72.50
-86.08
-98.16
-109.83
-122.33
-136.73
-153.73
-173.75
-196.70
-221.62
-246.20
-266.68
-278.57
-277.95
-262.89
-234.21
-194.98
-149.15
-99.86
-48.80
3.42
55.87
106.16
150.30
183.96
204.33
211.48
208.51
200.31
191.69
185.83
183.65
184.36
186.56
189.08
191.30
192.89
193.30
191.58
186.70
177.96
165.50
150.28
133.84
117.60
102.39
88.35
75.03
61.91
48.75
35.73
23.37
12.07
1.89
-7.65
-17.40
-28.21
-40.57
-54.42
-69.26
-84.36
-99.12
-113.30
-127.03
-140.82
-155.53
-172.29
-192.11
-215.24
-240.26
-263.77
-280.86
-286.42
-276.92
-251.63
-212.70
-163.92
-109.28
-51.89
5.84
61.45
111.72
152.84
181.61
196.73
199.71
194.25
185.02
175.98
169.51
166.34
166.07
167.91
171.10
174.87
178.29
180.23
179.52
175.25
167.09
155.37
141.10
125.56
110.00
95.22
81.52
68.69
56.32
44.12
32.10
20.60
10.00
0.46
-8.31
-17.00
-26.47
-37.44
-50.07
-64.02
-78.45
-92.41
-105.17
-116.57
-127.16
-138.27
-151.70
-169.08
-190.95
-215.80
-239.77
-257.22
-262.22
-250.42
-220.39
-174.04
-116.07
-52.69
9.76
65.80
111.49
144.63
164.77
173.04
171.75
163.91
152.65
140.76
130.50
123.47
120.57
121.84
126.42
132.72
138.81
142.98
144.11
141.80
136.28
128.10
117.90
106.30
93.72
80.52
66.94
53.25
39.78
26.98
15.38
5.42
-2.77
-9.45
-15.36
-21.53
-28.91
-38.10
-49.04
-61.07
-73.17
-84.34
-94.03
-102.38
-110.22
-118.89
-130.02
-144.96
-164.24
-186.83
-209.64
-227.65
-234.94
-226.31
-199.26
-155.09
-98.93
-38.25
19.22
67.56
103.76
127.50
140.28
144.15
141.00
132.55
120.66
107.61
96.02
88.25
85.66
88.16
94.20
101.48
107.75
111.52
112.28
110.30
106.20
100.50
93.48
85.20
75.73
65.22
53.99
42.49
31.17
20.43
10.62
1.97
-5.41
-11.64
-17.10
-22.43
-28.40
-35.66
-44.50
-54.60
-65.26
-75.62
-85.04
-93.42
-101.22
-109.41
-119.18
-131.77
-147.96
-167.53
-188.58
-207.17
-217.85
-215.07
-195.14
-157.96
-107.43
-50.44
5.22
53.19
89.91
114.67
128.58
133.37
130.69
122.04
109.29
94.86
81.57
71.91
67.36
67.92
72.30
78.55
84.79
89.69
92.68
93.65
92.67
89.77
84.90
78.04
69.40
59.41
48.67
37.77
27.14
17.04
7.57
-1.21
-9.17
-16.13
-21.98
-26.83
-31.11
-35.55
-40.94
-47.84
-56.32
-65.86
-75.58
-84.56
-92.25
-98.72
-104.73
-111.54
-120.69
-133.43
-150.09
-169.37
-187.86
-200.47
-201.61
-187.12
-156.00
-111.12
-58.49
-5.45
41.60
78.69
104.52
119.81
126.05
124.70
117.12
104.91
90.22
75.71
64.08
57.23
55.86
59.31
